***Scan Config Information***,,,,,,,***Reference Scan Information***,,,,,,,,
Scan Config Name:,herbario,,,,,,Scan Config Name:,Local New Reference,,,,,,,
Scan Config Type:,Slew,Num Section:,1,,,,Scan Config Type:,Slew,Num Section:,1,,,,,
Section Config Type:,Column,,,,,,Section Config Type:,Column,,,,,,,
Start Wavelength (nm):,900,,,,,,Start Wavelength (nm):,900,,,,,,,
End Wavelength (nm):,1700,,,,,,End Wavelength (nm):,1700,,,,,,,
Pattern Width (nm):,7.03,,,,,,Pattern Width (nm):,7.03,,,,,,,
Exposure (ms):,0.635,,,,,,Exposure (ms):,0.635,,,,,,,
Digital Resolution:,228,,,,,,Digital Resolution:,228,,,,,,,
Num Repeats:,20,,,,,,Num Repeats:,20,,,,,,,
PGA Gain:,64,(FixedPGA),,,,,PGA Gain:,64,(AutoPGA),,,,,,
System Temp (C):,31.44,,,,,,System Temp (C):,27.97,,,,,,,
Humidity (%):,57.65,,,,,,Humidity (%):,66.16,,,,,,,
Lamp Indicator:,1035,,,,,,Lamp Indicator:,1004,,,,,,,
Data Date-Time:,2023/11/10T11:32:40,,,,,,Data Date-Time:,2023/11/10T11:26:51,,,,,,,
Total Measurement Time in sec:,6.9009045,,,,,,,,,,,,,,
,,,,,,,,,,,,,,,
***General Information***,,,,,,,***Calibration Coefficients***,,,,,,,,
Model Name:,NIR-S-G1,,,,,,Shift Vector Coefficients:,-5.08535400046452,0.0413457073195706,-8.39863846568903E-05,,,,,
Serial Number:,B07R011,(95UB122GC0AB07R011),,,,,Pixel to Wavelength Coefficients:,1794.37724621797,-0.920219689099738,-0.000237242138379873,,,,,
GUI Version:,3.9.4,Revision:,526,,,,Versions (Cal/Ref/Cfg):,1,3,1,,,,,
TIVA Version:,2.4.7,,,,,,***Lamp Usage ***,,,,,,,,
DLPC Version:,2.3.1,,,,,,Total Time(hh:mm:ss):,47min 3sec ,,,,,,,
UUID:,DE:67:0C:88:67:2B:47:21,,,,,,***Device/Error/Activation Status***,,,,,,,,
Main Board Version:,D,,,,,,Device Status:,0x00000001,Activation Status:,Activated,,,,,
Detector Board Version:,B,,,,,,Error status:,0x00000000,Error Code:,0x00000000000000000000000000000000,,,,,
,,,,,,,,,Error Details:,Not found,,,,,
***Scan Data***,,,,,,,,,,,,,,,
Wavelength (nm),Absorbance (AU),Reference Signal (unitless),Sample Signal (unitless)
901.81429527209,0.148216953887344,83070,59051
905.716563509274,0.145477793616606,90499,64739
909.614561387966,0.147298851530642,98207,69959
913.508288908168,0.146719540071155,107710,76831
917.397746069878,0.146238112005179,119166,85097
921.282932873098,0.147750101565382,133960,95329
925.163849317827,0.147141899157717,151472,107942
929.040495404065,0.147135361340273,170669,121624
932.912871131812,0.146707759799291,189509,135183
938.069395988934,0.143617388881441,210876,151499
941.931807546869,0.141631870834048,224877,162298
945.789948746314,0.139618670343698,236775,171679
949.643819587268,0.139228921521284,247954,179946
953.493420069731,0.137798496006087,258255,188040
957.338750193702,0.138032770776138,268809,195619
961.179809959184,0.136557241269537,278671,203486
965.016599366174,0.136767217979452,288516,210573
968.849118414673,0.135349034279377,297762,218032
973.952501032798,0.136014026586128,310479,226996
977.775055911486,0.135341872855772,319807,234178
981.593340431682,0.135257423951769,328015,240235
985.407354593388,0.134776949133703,335526,246008
989.217098396603,0.133928213746888,342408,251545
993.022571841327,0.134058781492229,348464,255917
996.823774927561,0.133903232703818,353664,259829
1000.6207076553,0.132683583743558,358791,264337
1004.41337002455,0.13266512916417,363043,267481
1008.20176203532,0.131114112957488,365921,270566
1013.24630860312,0.130823527593649,369274,273228
1017.02473644407,0.129819237043971,371250,275326
1020.79889392653,0.13014023891634,372994,276415
1024.5687810505,0.128954123521632,374002,277920
1028.33439781597,0.128314379958749,374294,278547
1032.09574422296,0.12786115869633,374560,279036
1035.85282027145,0.127814388343644,374823,279262
1039.60562596146,0.12690251156148,374594,279678
1043.35416129297,0.126488338674318,374724,280042
1048.34556562178,0.125470953184317,373962,280128
1052.08413678348,0.125987097866706,374114,279909
1055.81843758669,0.125692991453455,373822,279880
1059.54846803141,0.125301454737878,373724,280059
1063.27422811764,0.124164280950601,373516,280637
1066.99571784538,0.124025129844246,373717,280878
1070.71293721462,0.123722655327779,374220,281452
1074.42588622538,0.123409354122323,375122,282334
1078.13456487764,0.123747006245029,376661,283272
1081.83897317142,0.123244767967118,378016,284620
1086.77154144991,0.122706528897367,380161,286590
1090.46598557387,0.122769598322211,382522,288328
1094.15615933934,0.12249703324369,384943,290335
1097.84206274632,0.1226503979032,387343,292042
1101.52369579481,0.122186379661032,389766,294183
1105.20105848481,0.122591255655546,393303,296576
1108.87415081632,0.122691617071995,396523,298935
1112.54297278934,0.122573114074871,399494,301257
1116.20752440387,0.122814995701893,403299,303957
1121.08695044336,0.123604127937189,408520,307333
1124.74153788807,0.123592842387658,412392,310254
1128.3918549743,0.124236000748728,417022,313273
1132.03790170203,0.124507559201277,421484,316427
1135.67967807127,0.125006008246266,426118,319539
1139.31718408202,0.125195490097706,430892,322978
1142.95041973428,0.125291794814492,435630,326457
1146.57938502805,0.12570569146402,440938,330120
1150.20407996333,0.126105557691364,445629,333325
1153.82450454012,0.126952067411893,451302,336911
1158.6450945293,0.128023323891917,458881,341725
1162.25555493627,0.128197445255287,464503,345773
1165.86174498476,0.129368225774784,470792,349511
1169.46366467475,0.129083559762358,476957,354320
1173.06131400625,0.129780242607097,483670,358731
1176.65469297927,0.129791319001331,490432,363737
1180.24380159379,0.13002821020862,497001,368408
1183.82863984982,0.130750893032771,504946,373675
1187.40920774736,0.131033286348672,512395,378941
1192.17665549754,0.131380051247307,522430,386054
1195.74725922527,0.131527366825505,530207,391668
1199.3135925945,0.131837656921175,538584,397572
1202.87565560525,0.132194343073415,546741,403262
1206.43344825751,0.132091510379375,554495,409078
1209.98697055127,0.13153624555245,562862,415782
1213.53622248654,0.131414113997651,571303,422136
1217.08120406333,0.130959625657719,579389,428559
1220.62191528162,0.130894215989149,587642,434729
1224.15835614142,0.130419319640664,595524,441042
1228.86696784128,0.129839099655815,605967,449376
1232.39344453127,0.129216462313032,613547,455650
1235.91565086277,0.128755951746627,620428,461249
1239.43358683578,0.128613553362248,627432,466609
1242.94725245029,0.128341599453104,633929,471736
1246.45664770632,0.127773442530637,640291,477094
1249.96177260386,0.127533339636634,645627,481336
1253.4626271429,0.127319581906962,651046,485615
1256.95921132345,0.126855676389057,656269,490034
1261.61468078432,0.126583619508644,664935,496816
1265.10130079506,0.126497506827585,671827,502065
1268.58365044731,0.126336558431061,677988,506857
1272.06172974107,0.126261850984881,684430,511761
1275.53553867634,0.125922721013161,689896,516251
1279.00507725312,0.126111463678536,695057,519887
1282.4703454714,0.125859077365921,700074,523944
1285.9313433312,0.125092345243507,704117,527901
1289.38807083251,0.125383217175178,708422,530773
1292.84052797532,0.125067339282067,711532,533491
1297.43716138587,0.125025450032588,716271,537096
1300.87965435887,0.12480084716228,719041,539452
1304.31787697338,0.124948966565565,721713,541272
1307.7518292294,0.125177332648768,724035,542728
1311.18151112693,0.125037886751284,725731,544174
1314.60692266597,0.125413163399339,727537,545057
1318.02806384652,0.125389065522543,728495,545805
1321.44493466858,0.12591283765213,729322,545766
1324.85753513215,0.126496655279186,730374,545819
1329.4010263037,0.127141822695385,730574,545158
1332.80366259745,0.127915078957188,730665,544256
1336.20202853272,0.128731805614543,730273,542942
1339.59612410949,0.129885301222174,729843,541183
1342.98594932777,0.13090200945432,728796,539143
1346.37150418756,0.132127992393723,727146,536406
1349.75278868886,0.133353032090313,724805,533173
1353.12980283167,0.135019405626206,721763,528902
1356.50254661599,0.136292665323102,719471,525679
1359.87102004182,0.137628186090488,716065,521584
1364.35567516305,0.139120356391414,713201,517716
1367.71418441907,0.140364593090934,711611,515084
1371.06842331659,0.14165000540353,709217,511834
1374.41839185563,0.142738161571252,704848,507408
1377.76409003617,0.144790012847084,699234,500994
1381.10551785823,0.146557609770607,693072,494562
1384.44267532179,0.148700957758566,687506,488175
1387.77556242686,0.151391393831137,682274,481468
1391.10417917344,0.155126047296135,677388,473927
1395.53569205567,0.161235463092354,671954,463558
1398.85434463244,0.166569421413519,668292,455404
1402.16872685072,0.173202584942289,664635,446047
1405.47883871051,0.180720272376686,662039,436680
1408.7846802118,0.188535229029622,659865,427484
1412.08625135461,0.197018179350886,657296,417583
1415.38355213892,0.204967135955159,654679,408377
1418.67658256475,0.212224775429062,653029,400597
1421.96534263208,0.219199733218622,651605,393355
1425.24983234092,0.225270983849634,649975,386924
1429.62250917284,0.232048907324951,648270,379933
1432.89703471187,0.236743060484531,647555,375434
1436.16728989241,0.240835504720571,645943,370987
1439.43327471445,0.243971105849866,645229,367911
1442.69498917801,0.246667693977499,644259,365084
1445.95243328308,0.248386658324962,643377,363144
1449.20560702965,0.249742265753037,642312,361413
1452.45451041774,0.250241112908558,640545,360005
1455.69914344733,0.250582194050119,638420,358529
1460.01867804025,0.250436672156419,635698,357120
1463.25334690003,0.249696936936871,633605,356551
1466.48374540132,0.248729959476091,630405,355541
1469.70987354412,0.247919689381174,627446,354533
1472.93173132843,0.245965430967141,624118,354243
1476.14931875425,0.244318880348043,621163,353905
1479.36263582158,0.241822987284276,617750,353989
1482.57168253042,0.240323604015044,613854,352973
1485.77645888076,0.238460015095957,610216,352390
1488.97696487262,0.236302715699181,606367,351911
1493.23766341522,0.233855781038433,600008,350188
1496.42820523726,0.232100286236402,595649,349052
1499.61447670082,0.230191599940933,591044,347879
1502.79647780588,0.228446874499232,585691,346116
1505.97420855245,0.226910407155544,580466,344244
1509.14766894053,0.225196293431387,575252,342501
1512.31685897012,0.223141272060113,569031,340404
1515.48177864122,0.222035509419964,562872,337578
1518.64242795382,0.220036838128259,557071,335640
1522.84998425743,0.218120421390889,548458,331912
1526.00066940022,0.21702731931775,542268,328993
1529.14708418453,0.216047354059054,535229,325456
1532.28922861034,0.21520953905688,528039,321704
1535.42710267766,0.214332436564546,520767,317915
1538.5607063865,0.213232296173997,513069,314010
1541.69003973684,0.212830539690415,505172,309463
1544.81510272869,0.211880110382058,497062,305162
1547.93589536205,0.211268335291168,488981,300624
1551.05241763692,0.210632735930115,480668,295946
1555.2011378902,0.209847870360971,469656,289689
1558.30769599526,0.209228834892386,461459,285039
1561.40998374183,0.208741802315128,453026,280144
1564.5080011299,0.207814159653309,444246,275302
1567.60174815948,0.208217616900188,435278,269494
1570.69122483058,0.207087342454642,426240,264586
1573.77643114318,0.206654794532286,417175,259217
1576.85736709729,0.206404525311562,408307,253853
1579.93403269291,0.205985778803206,398886,248235
1584.0296107072,0.204821572879038,386701,241298
1587.09631213301,0.204375676700066,377856,236021
1590.15874320033,0.203710396358749,369031,230862
1593.21690390916,0.202755530679534,359614,225466
1596.27079425949,0.201997267776551,351083,220502
1599.32041425134,0.200666761026097,342301,215646
1602.36576388469,0.200132514092697,333855,210584
1605.40684315956,0.199178960451974,325063,205489
1608.44365207593,0.197987984095688,316113,200380
1611.47619063381,0.197237704647205,307564,195298
1615.51293259778,0.19625901734535,296025,188395
1618.53550698585,0.195651043665448,287632,183310
1621.55381101543,0.194667607326564,279174,178323
1624.56784468652,0.194772662218461,271094,173120
1627.57760799912,0.194507790876653,262855,167961
1630.58310095323,0.194214274229154,254373,162651
1633.58432354884,0.193482780089406,246190,157684
1636.58127578597,0.193840639645003,238341,152531
1639.5739576646,0.194461498381518,230063,147023
1643.55755738958,0.195918827811842,219469,139783
1646.5402750984,0.196431452538094,211364,134462
1649.51872244873,0.196987610380284,203219,129115
1652.49289944057,0.198415799956338,194660,123271
1655.46280607392,0.198257460826075,185836,117726
1658.42844234878,0.197368564731981,176190,111844
1661.38980826515,0.194232255737843,165482,105808
1664.34690382303,0.189286358547157,153078,98998
1667.29972902242,0.180945585023462,139178,91754
1670.24828386331,0.172936538424247,124272,83452
1674.17304753796,0.162086443480507,103424,71209
1677.11163820905,0.154974084304204,88609,62016
1680.04595852164,0.150654050829282,74792,52869
1682.97600847574,0.147158725147071,62942,44852
1685.90178807136,0.145737094873351,53299,38105
1688.82329730848,0.146295924452124,45019,32144
1691.74053618711,0.150494675419895,38264,27058
1694.65350470725,0.15323194733463,32741,23007
1697.56220286889,0.150973433077621,28157,19889
1701.43382430455,0.160858455147239,22999,15880
