***Scan Config Information***,,,,,,,***Reference Scan Information***,,,,,,,,
Scan Config Name:,herbario,,,,,,Scan Config Name:,Local New Reference,,,,,,,
Scan Config Type:,Slew,Num Section:,1,,,,Scan Config Type:,Slew,Num Section:,1,,,,,
Section Config Type:,Column,,,,,,Section Config Type:,Column,,,,,,,
Start Wavelength (nm):,900,,,,,,Start Wavelength (nm):,900,,,,,,,
End Wavelength (nm):,1700,,,,,,End Wavelength (nm):,1700,,,,,,,
Pattern Width (nm):,7.03,,,,,,Pattern Width (nm):,7.03,,,,,,,
Exposure (ms):,0.635,,,,,,Exposure (ms):,0.635,,,,,,,
Digital Resolution:,228,,,,,,Digital Resolution:,228,,,,,,,
Num Repeats:,20,,,,,,Num Repeats:,20,,,,,,,
PGA Gain:,64,(FixedPGA),,,,,PGA Gain:,64,(AutoPGA),,,,,,
System Temp (C):,40.76,,,,,,System Temp (C):,40.75,,,,,,,
Humidity (%):,20.25,,,,,,Humidity (%):,20.3,,,,,,,
Lamp Indicator:,1113,,,,,,Lamp Indicator:,1120,,,,,,,
Data Date-Time:,2023/11/10T17:12:44,,,,,,Data Date-Time:,2023/11/10T17:11:34,,,,,,,
Total Measurement Time in sec:,6.7471489,,,,,,,,,,,,,,
,,,,,,,,,,,,,,,
***General Information***,,,,,,,***Calibration Coefficients***,,,,,,,,
Model Name:,NIR-S-G1,,,,,,Shift Vector Coefficients:,-5.08535400046452,0.0413457073195706,-8.39863846568903E-05,,,,,
Serial Number:,B07R011,(95UB122GC0AB07R011),,,,,Pixel to Wavelength Coefficients:,1794.37724621797,-0.920219689099738,-0.000237242138379873,,,,,
GUI Version:,3.9.4,Revision:,526,,,,Versions (Cal/Ref/Cfg):,1,3,1,,,,,
TIVA Version:,2.4.7,,,,,,***Lamp Usage ***,,,,,,,,
DLPC Version:,2.3.1,,,,,,Total Time(hh:mm:ss):,1hr 22min 11sec ,,,,,,,
UUID:,DE:67:0C:88:67:2B:47:21,,,,,,***Device/Error/Activation Status***,,,,,,,,
Main Board Version:,D,,,,,,Device Status:,0x00000001,Activation Status:,Activated,,,,,
Detector Board Version:,B,,,,,,Error status:,0x00000000,Error Code:,0x00000000000000000000000000000000,,,,,
,,,,,,,,,Error Details:,Not found,,,,,
***Scan Data***,,,,,,,,,,,,,,,
Wavelength (nm),Absorbance (AU),Reference Signal (unitless),Sample Signal (unitless)
901.81429527209,0.228675731645909,86428,51048
905.716563509274,0.229628527412929,93875,55325
909.614561387966,0.22638982530543,101169,60070
913.508288908168,0.226801508741947,110353,65461
917.397746069878,0.224942638840968,121338,72286
921.282932873098,0.224134787229722,134858,80490
925.163849317827,0.224653683552038,151346,90223
929.040495404065,0.22425657274962,169715,101266
932.912871131812,0.224613309539657,189323,112873
938.069395988934,0.22392003186475,213047,127220
941.931807546869,0.223862410030367,229145,136851
945.789948746314,0.222996869679208,243294,145591
949.643819587268,0.223195582972853,255889,153058
953.493420069731,0.221951702805976,267195,160279
957.338750193702,0.221706358492826,278522,167168
961.179809959184,0.221514669612053,289349,173743
965.016599366174,0.221566338168306,299775,179982
968.849118414673,0.221260464412557,309850,186162
973.952501032798,0.221321849739573,322908,193980
977.775055911486,0.221395153787917,332699,199828
981.593340431682,0.221682478234414,341231,204817
985.407354593388,0.221048797308697,349306,209970
989.217098396603,0.220581055422229,356340,214429
993.022571841327,0.22033743137001,362880,218487
996.823774927561,0.220245129380922,368178,221724
1000.6207076553,0.219399775418131,373894,225605
1004.41337002455,0.218927235763203,378189,228445
1008.20176203532,0.218916349724411,381848,230661
1013.24630860312,0.218459146864799,385516,233122
1017.02473644407,0.218077918596487,387747,234677
1020.79889392653,0.217994622077554,389427,235739
1024.5687810505,0.217564205068036,390713,236752
1028.33439781597,0.217492706142668,391576,237314
1032.09574422296,0.217089340654991,391135,237267
1035.85282027145,0.21709481134906,391951,237759
1039.60562596146,0.216301136025597,391808,238107
1043.35416129297,0.215815039455931,391825,238384
1048.34556562178,0.215329878914534,391202,238271
1052.08413678348,0.215053320261186,390866,238218
1055.81843758669,0.2149965596303,390705,238151
1059.54846803141,0.21451289796687,390434,238251
1063.27422811764,0.214468086247945,390805,238502
1066.99571784538,0.214361200092755,390699,238496
1070.71293721462,0.2137764233536,391343,239211
1074.42588622538,0.21309095479784,392222,240127
1078.13456487764,0.213507900017429,393668,240781
1081.83897317142,0.213131257582379,395336,242011
1086.77154144991,0.212967265540589,397530,243446
1090.46598557387,0.212482416145997,399706,245052
1094.15615933934,0.212835290350193,402633,246646
1097.84206274632,0.21221806146212,404834,248347
1101.52369579481,0.211916225852398,407524,250171
1105.20105848481,0.212212408901089,411116,252204
1108.87415081632,0.21196579491931,414747,254576
1112.54297278934,0.211660172733725,418032,256773
1116.20752440387,0.211628124202025,421913,259176
1121.08695044336,0.211206494201258,427238,262702
1124.74153788807,0.210614155838879,431299,265561
1128.3918549743,0.211334617831344,436113,268080
1132.03790170203,0.211652062034074,441254,271042
1135.67967807127,0.211577568865179,445788,273874
1139.31718408202,0.211811902869692,450859,276840
1142.95041973428,0.211962611624914,456118,279972
1146.57938502805,0.212110096363321,461664,283280
1150.20407996333,0.212455863558676,466592,286076
1153.82450454012,0.213127509687037,472646,289340
1158.6450945293,0.213665906912871,480679,293893
1162.25555493627,0.213845007726103,486519,297341
1165.86174498476,0.214338199843146,493023,300974
1169.46366467475,0.214916112883359,499573,304567
1173.06131400625,0.215629740317958,506674,308389
1176.65469297927,0.216151182179009,513647,312258
1180.24380159379,0.216764304201247,520741,316124
1183.82863984982,0.217777177532809,528989,320383
1187.40920774736,0.217764823466384,537013,325252
1192.17665549754,0.217854256750826,547217,331364
1195.74725922527,0.218119790398222,555632,336254
1199.3135925945,0.217904840331745,564170,341590
1202.87565560525,0.217801963664768,572337,346617
1206.43344825751,0.217674036195401,580772,351829
1209.98697055127,0.217709351365034,589823,357283
1213.53622248654,0.216850187284222,598215,363084
1217.08120406333,0.216133364859146,606823,368917
1220.62191528162,0.215688394517137,615272,374437
1224.15835614142,0.215075278358424,623862,380201
1228.86696784128,0.214223074428995,634589,387498
1232.39344453127,0.213544324823718,642524,392957
1235.91565086277,0.212593745134574,649980,398388
1239.43358683578,0.212625212648015,656911,402607
1242.94725245029,0.212023440008426,663521,407222
1246.45664770632,0.211836563623594,670234,411519
1249.96177260386,0.211251781217377,675734,415455
1253.4626271429,0.211274103598613,681208,418799
1256.95921132345,0.210611804394269,686819,422893
1261.61468078432,0.210661550642877,696351,428713
1265.10130079506,0.21056531864797,703873,433440
1268.58365044731,0.210109571693247,710133,437754
1272.06172974107,0.210042577251018,716693,441866
1275.53553867634,0.209913801714338,722146,445360
1279.00507725312,0.20957384934075,727579,449062
1282.4703454714,0.209121335466106,732525,452586
1285.9313433312,0.209106728247328,737181,455478
1289.38807083251,0.209083080383358,741483,458161
1292.84052797532,0.208832621152675,744863,460515
1297.43716138587,0.208263952525815,749500,463989
1300.87965435887,0.208416381574598,753003,465994
1304.31787697338,0.208346736704741,755561,467652
1307.7518292294,0.20845454560787,757885,468974
1311.18151112693,0.20851199704841,760046,470249
1314.60692266597,0.208046467965581,761773,471823
1318.02806384652,0.208222206532863,762771,472250
1321.44493466858,0.208607393133116,763582,472333
1324.85753513215,0.208742359415272,764581,472804
1329.4010263037,0.209428172162017,765169,472421
1332.80366259745,0.209798776961462,764942,471878
1336.20202853272,0.210003218056932,764754,471540
1339.59612410949,0.21063562339818,764215,470522
1342.98594932777,0.211551164817067,763414,469039
1346.37150418756,0.212533074664103,761974,467097
1349.75278868886,0.213269752728815,759689,464907
1353.12980283167,0.214381818699775,756876,462001
1356.50254661599,0.215170224909376,754977,460006
1359.87102004182,0.216332323697673,752272,457133
1364.35567516305,0.217526664223054,749276,454062
1367.71418441907,0.218300870249539,747310,452064
1371.06842331659,0.218931297981278,744280,449578
1374.41839185563,0.219955757718533,739649,445728
1377.76409003617,0.22088909479173,733682,441183
1381.10551785823,0.221737355077785,727665,436711
1384.44267532179,0.223471440907472,721740,431429
1387.77556242686,0.224457113231306,715823,426922
1391.10417917344,0.226107434783221,710626,422215
1395.53569205567,0.229114773944117,704941,415947
1398.85434463244,0.231797907689569,701375,411294
1402.16872685072,0.235419669496919,697643,405708
1405.47883871051,0.239626253240631,694729,400119
1408.7846802118,0.244546206475621,692169,394154
1412.08625135461,0.249182800047782,689506,388468
1415.38355213892,0.253794288193064,686783,382847
1418.67658256475,0.257891476976929,685200,378378
1421.96534263208,0.261760685860679,683479,374080
1425.24983234092,0.265290049877885,682143,370327
1429.62250917284,0.269339167990214,680285,365891
1432.89703471187,0.271434470115827,679194,363546
1436.16728989241,0.273711666989995,677692,360845
1439.43327471445,0.275016936036079,677413,359614
1442.69498917801,0.275980012404839,676119,358132
1445.95243328308,0.276573581052383,675675,357408
1449.20560702965,0.276455510189291,674140,356693
1452.45451041774,0.276677767952218,672250,355511
1455.69914344733,0.276788774561062,669963,354211
1460.01867804025,0.276299216899386,667181,353138
1463.25334690003,0.276511099388618,664934,351777
1466.48374540132,0.275750210878216,662019,350849
1469.70987354412,0.275574742067323,658713,349238
1472.93173132843,0.274677322045632,655471,348238
1476.14931875425,0.273782747535596,652118,347171
1479.36263582158,0.273173904800917,648554,345758
1482.57168253042,0.272460559640132,644660,344247
1485.77645888076,0.271471219074597,640497,342804
1488.97696487262,0.27073397127671,636928,341473
1493.23766341522,0.26973034913206,630290,338696
1496.42820523726,0.26874505125156,625540,336907
1499.61447670082,0.267241987316712,620348,335269
1502.79647780588,0.266484555343869,615209,333072
1505.97420855245,0.265584210510159,609489,330660
1509.14766894053,0.26468963723429,603925,328317
1512.31685897012,0.263358669080032,597740,325952
1515.48177864122,0.263056077157459,591093,322552
1518.64242795382,0.261878716475476,585006,320097
1522.84998425743,0.26091844900312,576055,315897
1526.00066940022,0.260112179252723,569415,312836
1529.14708418453,0.259408007701953,562363,309463
1532.28922861034,0.25894303240389,554462,305442
1535.42710267766,0.258897902023498,546948,301334
1538.5607063865,0.258334896578426,539264,297486
1541.69003973684,0.257654543693639,530583,293156
1544.81510272869,0.257532697292264,522158,288582
1547.93589536205,0.257063351203212,513428,284064
1551.05241763692,0.256718884509822,505042,279646
1555.2011378902,0.256333968953143,493133,273294
1558.30769599526,0.256954356386328,484953,268377
1561.40998374183,0.255680152928036,475803,264087
1564.5080011299,0.255424371159072,466788,259236
1567.60174815948,0.254552322042689,457323,254490
1570.69122483058,0.254771949780478,447957,249152
1573.77643114318,0.25411107677607,438334,244171
1576.85736709729,0.254231139382654,429123,238974
1579.93403269291,0.253401032366282,419310,233956
1584.0296107072,0.253396519444968,406518,226821
1587.09631213301,0.253078488390659,397418,221906
1590.15874320033,0.25288773617406,388069,216781
1593.21690390916,0.251914168171647,378264,211778
1596.27079425949,0.251082394954091,369436,207232
1599.32041425134,0.2507084813122,360889,202612
1602.36576388469,0.250324080230131,351120,197302
1605.40684315956,0.249363796452809,342116,192668
1608.44365207593,0.248698827472891,332726,187667
1611.47619063381,0.247888241543814,324266,183237
1615.51293259778,0.248051118301017,312199,176352
1618.53550698585,0.247755991133266,303665,171648
1621.55381101543,0.247726514013082,295040,166784
1624.56784468652,0.247891983428861,286251,161754
1627.57760799912,0.246819724249155,277716,157319
1630.58310095323,0.24738788890978,269093,152235
1633.58432354884,0.247700087754485,260833,147456
1636.58127578597,0.247088071057392,252554,142977
1639.5739576646,0.247010062690856,244118,138226
1643.55755738958,0.246111758328892,233180,132306
1646.5402750984,0.247251678869477,225083,127377
1649.51872244873,0.248173276890336,217403,122770
1652.49289944057,0.248057999526858,209292,118221
1655.46280607392,0.250158564244527,201606,113330
1658.42844234878,0.251393328126475,194045,108770
1661.38980826515,0.253344943797528,186276,103947
1664.34690382303,0.253043775270741,177997,99396
1667.29972902242,0.254541492505358,169176,94145
1670.24828386331,0.256227935176084,159815,88591
1674.17304753796,0.25883497766862,145030,79914
1677.11163820905,0.259954842692161,132344,72736
1680.04595852164,0.26188630864009,118927,65072
1682.97600847574,0.265835284333632,105126,57000
1685.90178807136,0.269495457413479,91393,49138
1688.82329730848,0.269572781230961,78101,41984
1691.74053618711,0.272209843103636,66475,35518
1694.65350470725,0.274825180297449,56402,29955
1697.56220286889,0.273362506600695,47659,25397
1701.43382430455,0.274823511146225,38392,20390
