***Scan Config Information***,,,,,,,***Reference Scan Information***,,,,,,,,
Scan Config Name:,herbario,,,,,,Scan Config Name:,Local New Reference,,,,,,,
Scan Config Type:,Slew,Num Section:,1,,,,Scan Config Type:,Slew,Num Section:,1,,,,,
Section Config Type:,Column,,,,,,Section Config Type:,Column,,,,,,,
Start Wavelength (nm):,900,,,,,,Start Wavelength (nm):,900,,,,,,,
End Wavelength (nm):,1700,,,,,,End Wavelength (nm):,1700,,,,,,,
Pattern Width (nm):,7.03,,,,,,Pattern Width (nm):,7.03,,,,,,,
Exposure (ms):,0.635,,,,,,Exposure (ms):,0.635,,,,,,,
Digital Resolution:,228,,,,,,Digital Resolution:,228,,,,,,,
Num Repeats:,20,,,,,,Num Repeats:,20,,,,,,,
PGA Gain:,64,(FixedPGA),,,,,PGA Gain:,64,(AutoPGA),,,,,,
System Temp (C):,40.61,,,,,,System Temp (C):,40.21,,,,,,,
Humidity (%):,20.39,,,,,,Humidity (%):,20.23,,,,,,,
Lamp Indicator:,1116,,,,,,Lamp Indicator:,1115,,,,,,,
Data Date-Time:,2023/11/13T13:46:33,,,,,,Data Date-Time:,2023/11/13T13:42:41,,,,,,,
Total Measurement Time in sec:,6.7750957,,,,,,,,,,,,,,
,,,,,,,,,,,,,,,
***General Information***,,,,,,,***Calibration Coefficients***,,,,,,,,
Model Name:,NIR-S-G1,,,,,,Shift Vector Coefficients:,-5.08535400046452,0.0413457073195706,-8.39863846568903E-05,,,,,
Serial Number:,B07R011,(95UB122GC0AB07R011),,,,,Pixel to Wavelength Coefficients:,1794.37724621797,-0.920219689099738,-0.000237242138379873,,,,,
GUI Version:,3.9.4,Revision:,526,,,,Versions (Cal/Ref/Cfg):,1,3,1,,,,,
TIVA Version:,2.4.7,,,,,,***Lamp Usage ***,,,,,,,,
DLPC Version:,2.3.1,,,,,,Total Time(hh:mm:ss):,2hr 6min 9sec ,,,,,,,
UUID:,DE:67:0C:88:67:2B:47:21,,,,,,***Device/Error/Activation Status***,,,,,,,,
Main Board Version:,D,,,,,,Device Status:,0x00000001,Activation Status:,Activated,,,,,
Detector Board Version:,B,,,,,,Error status:,0x00000000,Error Code:,0x00000000000000000000000000000000,,,,,
,,,,,,,,,Error Details:,Not found,,,,,
***Scan Data***,,,,,,,,,,,,,,,
Wavelength (nm),Absorbance (AU),Reference Signal (unitless),Sample Signal (unitless)
901.81429527209,0.123522909453957,85748,64521
905.716563509274,0.122295471857713,93313,70412
909.614561387966,0.123065185571872,100694,75847
913.508288908168,0.122882966318904,109734,82691
917.397746069878,0.121452702947104,120649,91216
921.282932873098,0.121797294013204,134166,101355
925.163849317827,0.121326523501743,150421,113758
929.040495404065,0.120899839320071,168713,127717
932.912871131812,0.119716600826934,187953,142670
938.069395988934,0.119408919212231,211977,161020
941.931807546869,0.119187912105407,227910,173211
945.789948746314,0.119105434657139,241897,183876
949.643819587268,0.118663426098131,254174,193405
953.493420069731,0.119456770340518,266059,202079
957.338750193702,0.118743119780158,277117,210824
961.179809959184,0.118882699025355,287775,218862
965.016599366174,0.119423352607874,298264,226557
968.849118414673,0.119109349684124,307873,234025
973.952501032798,0.119856622802793,321277,243794
977.775055911486,0.120072967812304,330764,250868
981.593340431682,0.120073254750721,339068,257166
985.407354593388,0.12035963748024,347279,263220
989.217098396603,0.120597440974234,354690,268690
993.022571841327,0.120969182183233,361136,273339
996.823774927561,0.1205612730609,366420,277599
1000.6207076553,0.120694883721591,372040,281770
1004.41337002455,0.120558472219964,376444,285195
1008.20176203532,0.120930069950852,379991,287636
1013.24630860312,0.120590561220325,383377,290426
1017.02473644407,0.120722243142954,385775,292154
1020.79889392653,0.120848160603693,387493,293370
1024.5687810505,0.120513498147917,388612,294444
1028.33439781597,0.120849969074632,389110,294593
1032.09574422296,0.12030777040679,389139,294983
1035.85282027145,0.121126920040679,389723,294869
1039.60562596146,0.120770265358533,389757,295137
1043.35416129297,0.120730007606058,389742,295153
1048.34556562178,0.120434772506178,389171,294921
1052.08413678348,0.120440272886558,388945,294746
1055.81843758669,0.120626639150022,388605,294362
1059.54846803141,0.120621875617823,388441,294241
1063.27422811764,0.121258018821103,388861,294128
1066.99571784538,0.120715329282555,388415,294158
1070.71293721462,0.121343901362424,389488,294544
1074.42588622538,0.121420080771807,390252,295070
1078.13456487764,0.121179569573451,391486,296167
1081.83897317142,0.121504977794283,393011,297098
1086.77154144991,0.121041690632784,395104,298999
1090.46598557387,0.121110237907601,397203,300540
1094.15615933934,0.121229999770716,399864,302470
1097.84206274632,0.120984029713585,402144,304367
1101.52369579481,0.121063681803573,405055,306514
1105.20105848481,0.121206463042226,408493,309014
1108.87415081632,0.121199556460327,411860,311566
1112.54297278934,0.121880370810634,415452,313791
1116.20752440387,0.121695807350258,419120,316696
1121.08695044336,0.122259029129454,424494,320341
1124.74153788807,0.122469305336912,428718,323372
1128.3918549743,0.122690539756879,433583,326875
1132.03790170203,0.123516439198691,438269,329780
1135.67967807127,0.123480692659559,442771,333195
1139.31718408202,0.124196440730292,447975,336556
1142.95041973428,0.124238574320294,453057,340341
1146.57938502805,0.124852852246541,458432,343892
1150.20407996333,0.125343007886938,463582,347363
1153.82450454012,0.125824634528331,469466,351382
1158.6450945293,0.126762914226439,477393,356544
1162.25555493627,0.127271075141757,483133,360409
1165.86174498476,0.127668226914994,489425,364769
1169.46366467475,0.128050151663675,496029,369366
1173.06131400625,0.128470456099246,502936,374147
1176.65469297927,0.12867071926146,510106,379306
1180.24380159379,0.12905398805647,516985,384082
1183.82863984982,0.129880425183848,525035,389321
1187.40920774736,0.130223624714065,533023,394932
1192.17665549754,0.130865308939243,543343,401984
1195.74725922527,0.130889850843879,551380,407907
1199.3135925945,0.131254010489564,560072,413990
1202.87565560525,0.131205412904971,568223,420062
1206.43344825751,0.131383936260845,576334,425883
1209.98697055127,0.131376223162354,585515,432675
1213.53622248654,0.13122324639948,593792,438946
1217.08120406333,0.130945751348507,602315,445531
1220.62191528162,0.130737231020726,610882,452085
1224.15835614142,0.130271825653859,619046,458618
1228.86696784128,0.130035986502817,629972,466966
1232.39344453127,0.129287084687326,637592,473430
1235.91565086277,0.12919379984923,644936,478986
1239.43358683578,0.128953232035453,651913,484436
1242.94725245029,0.128780427677407,658619,489614
1246.45664770632,0.128571029724557,665203,494747
1249.96177260386,0.128511313724406,670864,499026
1253.4626271429,0.128239347890024,676385,503448
1256.95921132345,0.128257346511912,681970,507584
1261.61468078432,0.128255689384875,691203,514458
1265.10130079506,0.12826904388069,698129,519597
1268.58365044731,0.128217679048815,704636,524502
1272.06172974107,0.128282165240954,711221,529325
1275.53553867634,0.128367261963069,716951,533485
1279.00507725312,0.128334659969176,722095,537353
1282.4703454714,0.127904957958393,727273,541742
1285.9313433312,0.127895824548086,731673,545031
1289.38807083251,0.127760209276829,735888,548342
1292.84052797532,0.127827289266017,739219,550739
1297.43716138587,0.1278342396575,744373,554570
1300.87965435887,0.127849073377518,747479,556865
1304.31787697338,0.127883016168234,750139,558803
1307.7518292294,0.127853864422415,752184,560364
1311.18151112693,0.127672608237291,754292,562169
1314.60692266597,0.127840832197367,756101,563299
1318.02806384652,0.12825783336932,757264,563624
1321.44493466858,0.128492823690006,758346,564124
1324.85753513215,0.128974769241636,759258,564176
1329.4010263037,0.129641263441739,759827,563733
1332.80366259745,0.130529410322627,759913,562645
1336.20202853272,0.1309851977905,759317,561614
1339.59612410949,0.132032084949876,759221,560191
1342.98594932777,0.132861442163296,757856,558117
1346.37150418756,0.134206382108893,756563,555442
1349.75278868886,0.135132389438083,754390,552667
1353.12980283167,0.136152831993881,751785,549466
1356.50254661599,0.137307244746349,749702,546489
1359.87102004182,0.13847932901851,747003,543054
1364.35567516305,0.140018411940118,744176,539085
1367.71418441907,0.140522708221799,741902,536814
1371.06842331659,0.141604277227713,738990,533377
1374.41839185563,0.142372269815255,734606,529276
1377.76409003617,0.143705877591124,728686,523401
1381.10551785823,0.144757308560635,722510,517710
1384.44267532179,0.146283263998587,716919,511902
1387.77556242686,0.14798483704837,711199,505832
1391.10417917344,0.150336010869763,705963,499397
1395.53569205567,0.153613794669073,700408,491742
1398.85434463244,0.15694199085173,696372,485176
1402.16872685072,0.161467777604896,693033,477844
1405.47883871051,0.165754621893041,689785,470933
1408.7846802118,0.171124098973428,687388,463530
1412.08625135461,0.176004325472275,684343,456320
1415.38355213892,0.181760402517609,681980,448757
1418.67658256475,0.187181430967343,680290,442092
1421.96534263208,0.192201227055722,678443,435825
1425.24983234092,0.196220246154071,677077,430941
1429.62250917284,0.201817540536233,675327,424323
1432.89703471187,0.204836913547504,674535,420889
1436.16728989241,0.20750004581163,673316,417560
1439.43327471445,0.209338049505594,671950,414953
1442.69498917801,0.210953984781024,671248,412980
1445.95243328308,0.212284675298765,670458,411232
1449.20560702965,0.213281372042501,669361,409618
1452.45451041774,0.213734177812862,667298,407930
1455.69914344733,0.214370119467438,665350,406144
1460.01867804025,0.214852947516589,662464,403933
1463.25334690003,0.214867142790363,659996,402415
1466.48374540132,0.215042471596773,656981,400415
1469.70987354412,0.215006066556357,653899,398570
1472.93173132843,0.214733928685006,650889,396984
1476.14931875425,0.214399713421383,647862,395442
1479.36263582158,0.213748305990623,643845,393580
1482.57168253042,0.213467818973315,640212,391612
1485.77645888076,0.212991042883738,636139,389548
1488.97696487262,0.212590855838027,632525,387692
1493.23766341522,0.211544914489193,626067,384659
1496.42820523726,0.210600433856019,621389,382616
1499.61447670082,0.209705765061126,616274,380249
1502.79647780588,0.208501504096763,610952,378012
1505.97420855245,0.20765759174588,605259,375218
1509.14766894053,0.206215098173433,599805,373074
1512.31685897012,0.204767333156357,593500,370385
1515.48177864122,0.203505507494804,586913,367340
1518.64242795382,0.202817149719653,581150,364310
1522.84998425743,0.201663819258996,572260,359691
1526.00066940022,0.200821632846284,565635,356217
1529.14708418453,0.199839352399778,558633,352604
1532.28922861034,0.198884117457103,550763,348402
1535.42710267766,0.198396259315116,543380,344118
1538.5607063865,0.198152429905911,535241,339154
1541.69003973684,0.197572142755737,527174,334489
1544.81510272869,0.197076314181712,518761,329527
1547.93589536205,0.196485011526429,509833,324297
1551.05241763692,0.196055866717531,501596,319373
1555.2011378902,0.195561821861974,489947,312311
1558.30769599526,0.195303077027373,481424,307061
1561.40998374183,0.194534799175917,472682,302019
1564.5080011299,0.194932825233618,463920,296149
1567.60174815948,0.194632502804087,454476,290321
1570.69122483058,0.194041015221937,444992,284650
1573.77643114318,0.193897742773348,435567,278713
1576.85736709729,0.193293860675694,426007,272975
1579.93403269291,0.193767838941517,416589,266649
1584.0296107072,0.192271961379098,403766,259333
1587.09631213301,0.19238808929431,394765,253484
1590.15874320033,0.191022554123702,385501,248315
1593.21690390916,0.190256915536357,375708,242434
1596.27079425949,0.189206077713731,367101,237454
1599.32041425134,0.188126910418638,358180,232260
1602.36576388469,0.18738561518292,348974,226677
1605.40684315956,0.186820361359312,340013,221144
1608.44365207593,0.185660291616803,330870,215773
1611.47619063381,0.184587451903981,321864,210419
1615.51293259778,0.18387121723679,310062,203038
1618.53550698585,0.183265993239706,301714,197847
1621.55381101543,0.182476756340737,292931,192437
1624.56784468652,0.181745743390238,284217,187027
1627.57760799912,0.181984638034524,275924,181470
1630.58310095323,0.181376517225428,267237,176003
1633.58432354884,0.181483566193466,259006,170540
1636.58127578597,0.181859038176635,250739,164954
1639.5739576646,0.181101803777561,242483,159801
1643.55755738958,0.1817604235208,231631,152418
1646.5402750984,0.182838924504854,223779,146886
1649.51872244873,0.184184062901151,216230,141492
1652.49289944057,0.18557055405808,207847,135573
1655.46280607392,0.187081306126236,200296,130194
1658.42844234878,0.188597688887615,192592,124750
1661.38980826515,0.19017211912588,184892,119329
1664.34690382303,0.189910806306752,176566,114024
1667.29972902242,0.191687616510216,167712,107864
1670.24828386331,0.191147128938414,158276,101922
1674.17304753796,0.193590249539229,144080,92260
1677.11163820905,0.192968895095606,131071,84050
1680.04595852164,0.190449658443045,117094,75524
1682.97600847574,0.192262009946447,103352,66383
1685.90178807136,0.192529503034331,89761,57618
1688.82329730848,0.194073938584846,76884,49177
1691.74053618711,0.19405799855441,65489,41890
1694.65350470725,0.192994626180359,55326,35476
1697.56220286889,0.198042550840881,47019,29801
1701.43382430455,0.197953669629031,37693,23895
