***Scan Config Information***,,,,,,,***Reference Scan Information***,,,,,,,,
Scan Config Name:,herbario,,,,,,Scan Config Name:,Local New Reference,,,,,,,
Scan Config Type:,Slew,Num Section:,1,,,,Scan Config Type:,Slew,Num Section:,1,,,,,
Section Config Type:,Column,,,,,,Section Config Type:,Column,,,,,,,
Start Wavelength (nm):,900,,,,,,Start Wavelength (nm):,900,,,,,,,
End Wavelength (nm):,1700,,,,,,End Wavelength (nm):,1700,,,,,,,
Pattern Width (nm):,7.03,,,,,,Pattern Width (nm):,7.03,,,,,,,
Exposure (ms):,0.635,,,,,,Exposure (ms):,0.635,,,,,,,
Digital Resolution:,228,,,,,,Digital Resolution:,228,,,,,,,
Num Repeats:,20,,,,,,Num Repeats:,20,,,,,,,
PGA Gain:,64,(FixedPGA),,,,,PGA Gain:,64,(AutoPGA),,,,,,
System Temp (C):,41.98,,,,,,System Temp (C):,41.74,,,,,,,
Humidity (%):,20.99,,,,,,Humidity (%):,21.08,,,,,,,
Lamp Indicator:,1121,,,,,,Lamp Indicator:,1129,,,,,,,
Data Date-Time:,2023/11/10T15:52:33,,,,,,Data Date-Time:,2023/11/10T15:50:16,,,,,,,
Total Measurement Time in sec:,6.7510784,,,,,,,,,,,,,,
,,,,,,,,,,,,,,,
***General Information***,,,,,,,***Calibration Coefficients***,,,,,,,,
Model Name:,NIR-S-G1,,,,,,Shift Vector Coefficients:,-5.08535400046452,0.0413457073195706,-8.39863846568903E-05,,,,,
Serial Number:,B07R011,(95UB122GC0AB07R011),,,,,Pixel to Wavelength Coefficients:,1794.37724621797,-0.920219689099738,-0.000237242138379873,,,,,
GUI Version:,3.9.4,Revision:,526,,,,Versions (Cal/Ref/Cfg):,1,3,1,,,,,
TIVA Version:,2.4.7,,,,,,***Lamp Usage ***,,,,,,,,
DLPC Version:,2.3.1,,,,,,Total Time(hh:mm:ss):,1hr 15min 3sec ,,,,,,,
UUID:,DE:67:0C:88:67:2B:47:21,,,,,,***Device/Error/Activation Status***,,,,,,,,
Main Board Version:,D,,,,,,Device Status:,0x00000001,Activation Status:,Activated,,,,,
Detector Board Version:,B,,,,,,Error status:,0x00000000,Error Code:,0x00000000000000000000000000000000,,,,,
,,,,,,,,,Error Details:,Not found,,,,,
***Scan Data***,,,,,,,,,,,,,,,
Wavelength (nm),Absorbance (AU),Reference Signal (unitless),Sample Signal (unitless)
901.81429527209,0.660250009771938,87098,19044
905.716563509274,0.64883867635388,94003,21101
909.614561387966,0.643767100318603,101696,23096
913.508288908168,0.638852166129723,110861,25464
917.397746069878,0.633320133395416,121786,28332
921.282932873098,0.62937118982995,135226,31746
925.163849317827,0.625623383598805,151294,35826
929.040495404065,0.62208086117138,170154,40622
932.912871131812,0.615825093301322,189145,45811
938.069395988934,0.610666997237839,213522,52333
941.931807546869,0.605188499808601,229737,57022
945.789948746314,0.600657202014768,243875,61166
949.643819587268,0.597090956238964,256619,64893
953.493420069731,0.592554082381909,268330,68567
957.338750193702,0.586964094369086,279977,72470
961.179809959184,0.582894647084158,290283,75845
965.016599366174,0.577254533439466,300837,79630
968.849118414673,0.573506715059144,310908,83009
973.952501032798,0.570072915358586,324401,87299
977.775055911486,0.564899241141806,334131,90995
981.593340431682,0.560559106192949,342591,94236
985.407354593388,0.556081468861118,350440,97394
989.217098396603,0.551895985756394,357834,100412
993.022571841327,0.548193593354762,364220,103079
996.823774927561,0.543753807013788,369567,105667
1000.6207076553,0.539082440526336,375284,108462
1004.41337002455,0.535211523809044,379910,110782
1008.20176203532,0.530848388216044,383371,112920
1013.24630860312,0.525758423683138,387011,115336
1017.02473644407,0.521244968520406,389140,117182
1020.79889392653,0.517065816502354,390929,118859
1024.5687810505,0.514056390181624,392149,120059
1028.33439781597,0.509739559516142,392342,121318
1032.09574422296,0.505084275457474,392603,122707
1035.85282027145,0.501383130063984,393424,124016
1039.60562596146,0.49761839099504,393189,125021
1043.35416129297,0.494224318274116,393439,126082
1048.34556562178,0.49050620067472,392588,126891
1052.08413678348,0.485301499927177,392295,128325
1055.81843758669,0.483336726336795,391985,128805
1059.54846803141,0.479730125188065,391876,129843
1063.27422811764,0.47516797999703,391995,131254
1066.99571784538,0.472351044541173,392327,132220
1070.71293721462,0.469240140351466,392626,133272
1074.42588622538,0.465602835484134,393757,134780
1078.13456487764,0.462502954877411,394797,136104
1081.83897317142,0.460444336994688,396686,137405
1086.77154144991,0.456043401891057,398648,139491
1090.46598557387,0.45296266431937,400972,141303
1094.15615933934,0.45076223814332,403429,142891
1097.84206274632,0.4473408612608,405804,144869
1101.52369579481,0.444096806659796,409012,147109
1105.20105848481,0.442421819845888,412614,148978
1108.87415081632,0.438970290442468,415662,151276
1112.54297278934,0.43684598565834,419302,153349
1116.20752440387,0.434574198126019,423297,155622
1121.08695044336,0.430587131309353,428692,159059
1124.74153788807,0.428819425644472,433017,161319
1128.3918549743,0.426697289774882,437707,163865
1132.03790170203,0.423689858252217,442557,166832
1135.67967807127,0.421741234992286,447434,169429
1139.31718408202,0.419483498376307,451871,172001
1142.95041973428,0.417649962004277,457669,174945
1146.57938502805,0.415633139049673,462824,177739
1150.20407996333,0.41368569218466,468118,180580
1153.82450454012,0.41179363454428,473870,183597
1158.6450945293,0.409425216342718,482010,187772
1162.25555493627,0.407834278813787,487928,190775
1165.86174498476,0.406708038035914,494654,193907
1169.46366467475,0.405423284158437,501309,197098
1173.06131400625,0.403221522889235,508046,200762
1176.65469297927,0.401193083713902,515444,204639
1180.24380159379,0.399314808216082,522213,208225
1183.82863984982,0.397754220891072,530518,212298
1187.40920774736,0.396473578819163,538541,216145
1192.17665549754,0.394031537890933,548992,221582
1195.74725922527,0.392727173012554,557335,225626
1199.3135925945,0.390672825341535,565660,230082
1202.87565560525,0.388856985413991,574033,234466
1206.43344825751,0.38694523008833,582556,238997
1209.98697055127,0.385400077519517,591497,243530
1213.53622248654,0.383473344591314,600043,248147
1217.08120406333,0.381459496778032,608553,252836
1220.62191528162,0.379557966495384,616865,257414
1224.15835614142,0.377851589110535,625357,261985
1228.86696784128,0.375556940346283,636054,267878
1232.39344453127,0.373749062024627,644161,272424
1235.91565086277,0.372112501668037,651639,276627
1239.43358683578,0.369990772695204,658433,280880
1242.94725245029,0.368603651901925,665339,284734
1246.45664770632,0.366611049835899,671816,288828
1249.96177260386,0.365332008356844,677591,292170
1253.4626271429,0.363744578072336,683063,295608
1256.95921132345,0.362045661211719,688673,299204
1261.61468078432,0.360144604673783,698104,304632
1265.10130079506,0.359405656921185,705272,308284
1268.58365044731,0.358259328905907,712040,312065
1272.06172974107,0.356176872054155,718337,316338
1275.53553867634,0.355293738361152,724057,319506
1279.00507725312,0.353781755394041,729063,322837
1282.4703454714,0.352186361390042,734510,326446
1285.9313433312,0.351210267888781,738891,329132
1289.38807083251,0.350020217506612,742793,331778
1292.84052797532,0.348903054331759,746521,334302
1297.43716138587,0.34733711011279,751397,337701
1300.87965435887,0.34624951863335,754436,339917
1304.31787697338,0.34516819937389,757238,342030
1307.7518292294,0.344257197781526,759438,343744
1311.18151112693,0.342891763186257,761265,345656
1314.60692266597,0.34228499234685,763191,347015
1318.02806384652,0.34130770251185,764326,348314
1321.44493466858,0.340619569364828,765206,349268
1324.85753513215,0.339927653571944,766079,350224
1329.4010263037,0.339000941603467,766906,351351
1332.80366259745,0.338480033760763,766765,351708
1336.20202853272,0.33791839459593,766277,351939
1339.59612410949,0.337476800023071,765781,352069
1342.98594932777,0.33761102405657,764771,351496
1346.37150418756,0.337623766670385,763105,350720
1349.75278868886,0.337113385241689,761146,350231
1353.12980283167,0.336963921886543,758251,349019
1356.50254661599,0.336942551554626,756126,348058
1359.87102004182,0.336720346053111,753290,346930
1364.35567516305,0.336376164509242,750400,345873
1367.71418441907,0.33615017073998,748251,345062
1371.06842331659,0.336359399595601,745494,343625
1374.41839185563,0.336073094459744,740569,341580
1377.76409003617,0.336416057962055,734495,338511
1381.10551785823,0.336985920775132,728633,335369
1384.44267532179,0.337381553406924,722708,332339
1387.77556242686,0.33864691605443,716841,328682
1391.10417917344,0.340066726432104,711937,325368
1395.53569205567,0.342928596234907,706043,320555
1398.85434463244,0.345662116780354,702351,316878
1402.16872685072,0.348865425242877,698925,313015
1405.47883871051,0.352052705640864,695771,309324
1408.7846802118,0.355674913980561,693070,305564
1412.08625135461,0.359388725390583,690432,301809
1415.38355213892,0.362718183780411,687956,298430
1418.67658256475,0.36701546129376,686227,294749
1421.96534263208,0.370313231522573,684631,291839
1425.24983234092,0.373558179103746,683065,289004
1429.62250917284,0.376325647205314,681202,286385
1432.89703471187,0.37796381135499,680491,285009
1436.16728989241,0.379592982961135,678924,283288
1439.43327471445,0.380148357845966,678149,282603
1442.69498917801,0.380413201127537,677535,282175
1445.95243328308,0.380700536564927,676549,281578
1449.20560702965,0.379929998024071,675520,281649
1452.45451041774,0.379395950088294,673322,281078
1455.69914344733,0.379543466656713,671176,280087
1460.01867804025,0.378000855992073,668290,279875
1463.25334690003,0.377935952560004,665817,278881
1466.48374540132,0.376909999821682,662905,278318
1469.70987354412,0.376102101854567,659840,277547
1472.93173132843,0.374931855661273,656445,276864
1476.14931875425,0.37347742940501,653142,276395
1479.36263582158,0.37214403850873,649314,275620
1482.57168253042,0.371523819613583,645555,274416
1485.77645888076,0.370526765613972,641575,273351
1488.97696487262,0.369208338321273,637653,272506
1493.23766341522,0.367588182556143,631150,270735
1496.42820523726,0.366676536683159,626330,269232
1499.61447670082,0.365374490476257,621354,267895
1502.79647780588,0.363941127740994,615876,266411
1505.97420855245,0.362696471100944,610446,264820
1509.14766894053,0.361871642174402,605006,262959
1512.31685897012,0.360227599571462,598631,261175
1515.48177864122,0.359401932564869,591960,258756
1518.64242795382,0.35781825204502,586058,257112
1522.84998425743,0.356738255402857,577256,253881
1526.00066940022,0.355126929829834,570497,251841
1529.14708418453,0.353774822606558,563297,249438
1532.28922861034,0.353336181379896,555622,246288
1535.42710267766,0.352629865686874,548068,243335
1538.5607063865,0.351583538275838,539795,240240
1541.69003973684,0.350968984442955,531329,236807
1544.81510272869,0.350669272634189,522783,233159
1547.93589536205,0.349685353140152,514307,229899
1551.05241763692,0.349315623111147,505503,226156
1555.2011378902,0.348615493286082,494198,221455
1558.30769599526,0.347862056661815,485453,217914
1561.40998374183,0.347520206035121,476550,214086
1564.5080011299,0.347080006383087,467497,210232
1567.60174815948,0.346428732796371,458077,206305
1570.69122483058,0.345641542488025,448546,202379
1573.77643114318,0.345445972012104,439312,198302
1576.85736709729,0.345002773661454,429695,194159
1579.93403269291,0.343885995918553,420009,190271
1584.0296107072,0.344116131864233,407583,184544
1587.09631213301,0.342635533625749,397966,180805
1590.15874320033,0.34204954996405,388815,176886
1593.21690390916,0.340848625798286,379017,172906
1596.27079425949,0.339754332976515,369949,169195
1599.32041425134,0.338665456829821,360968,165502
1602.36576388469,0.337676382595426,351980,161749
1605.40684315956,0.33717569646997,342841,157731
1608.44365207593,0.336110967673677,333812,153954
1611.47619063381,0.335888635613661,324706,149831
1615.51293259778,0.334303407029819,312731,144833
1618.53550698585,0.333290275622723,304064,141148
1621.55381101543,0.333226545102097,295617,137247
1624.56784468652,0.332177618222539,286872,133509
1627.57760799912,0.33135749012427,278417,129819
1630.58310095323,0.331345211380296,269434,125634
1633.58432354884,0.330223362472375,261280,122147
1636.58127578597,0.329641385686536,252945,118409
1639.5739576646,0.329878622792123,244771,114520
1643.55755738958,0.328773999290341,233707,109622
1646.5402750984,0.328439372847081,225630,105915
1649.51872244873,0.328953471705279,217848,102141
1652.49289944057,0.328588819287833,209563,98339
1655.46280607392,0.329698286288629,202459,94763
1658.42844234878,0.330337690173065,194631,90965
1661.38980826515,0.330068525131803,186928,87419
1664.34690382303,0.332300139937355,179096,83327
1667.29972902242,0.331072283461462,170296,79457
1670.24828386331,0.332158348124231,161348,75094
1674.17304753796,0.33322899599012,147007,68251
1677.11163820905,0.332207410884028,134830,62745
1680.04595852164,0.335391338907153,121676,56210
1682.97600847574,0.335753938875173,108105,49899
1685.90178807136,0.338286166669761,94272,43261
1688.82329730848,0.33952433574592,81123,37121
1691.74053618711,0.337113680039023,69060,31777
1694.65350470725,0.34319970830246,58627,26601
1697.56220286889,0.341344993961963,49667,22632
1701.43382430455,0.337286791825236,39778,18296
