***Scan Config Information***,,,,,,,***Reference Scan Information***,,,,,,,,
Scan Config Name:,herbario,,,,,,Scan Config Name:,Local New Reference,,,,,,,
Scan Config Type:,Slew,Num Section:,1,,,,Scan Config Type:,Slew,Num Section:,1,,,,,
Section Config Type:,Column,,,,,,Section Config Type:,Column,,,,,,,
Start Wavelength (nm):,900,,,,,,Start Wavelength (nm):,900,,,,,,,
End Wavelength (nm):,1700,,,,,,End Wavelength (nm):,1700,,,,,,,
Pattern Width (nm):,7.03,,,,,,Pattern Width (nm):,7.03,,,,,,,
Exposure (ms):,0.635,,,,,,Exposure (ms):,0.635,,,,,,,
Digital Resolution:,228,,,,,,Digital Resolution:,228,,,,,,,
Num Repeats:,20,,,,,,Num Repeats:,20,,,,,,,
PGA Gain:,64,(FixedPGA),,,,,PGA Gain:,64,(AutoPGA),,,,,,
System Temp (C):,39.18,,,,,,System Temp (C):,38.77,,,,,,,
Humidity (%):,32.76,,,,,,Humidity (%):,33.73,,,,,,,
Lamp Indicator:,1100,,,,,,Lamp Indicator:,1104,,,,,,,
Data Date-Time:,2023/11/13T09:39:29,,,,,,Data Date-Time:,2023/11/13T09:36:43,,,,,,,
Total Measurement Time in sec:,6.8099164,,,,,,,,,,,,,,
,,,,,,,,,,,,,,,
***General Information***,,,,,,,***Calibration Coefficients***,,,,,,,,
Model Name:,NIR-S-G1,,,,,,Shift Vector Coefficients:,-5.08535400046452,0.0413457073195706,-8.39863846568903E-05,,,,,
Serial Number:,B07R011,(95UB122GC0AB07R011),,,,,Pixel to Wavelength Coefficients:,1794.37724621797,-0.920219689099738,-0.000237242138379873,,,,,
GUI Version:,3.9.4,Revision:,526,,,,Versions (Cal/Ref/Cfg):,1,3,1,,,,,
TIVA Version:,2.4.7,,,,,,***Lamp Usage ***,,,,,,,,
DLPC Version:,2.3.1,,,,,,Total Time(hh:mm:ss):,1hr 47min 1sec ,,,,,,,
UUID:,DE:67:0C:88:67:2B:47:21,,,,,,***Device/Error/Activation Status***,,,,,,,,
Main Board Version:,D,,,,,,Device Status:,0x00000001,Activation Status:,Activated,,,,,
Detector Board Version:,B,,,,,,Error status:,0x00000000,Error Code:,0x00000000000000000000000000000000,,,,,
,,,,,,,,,Error Details:,Not found,,,,,
***Scan Data***,,,,,,,,,,,,,,,
Wavelength (nm),Absorbance (AU),Reference Signal (unitless),Sample Signal (unitless)
901.81429527209,0.560208192260731,86207,23732
905.716563509274,0.553255306796361,93707,26213
909.614561387966,0.546951114450517,101186,28719
913.508288908168,0.54567695321665,110336,31408
917.397746069878,0.538853440760777,121446,35118
921.282932873098,0.535514394151966,134912,39313
925.163849317827,0.530859601555364,151502,44623
929.040495404065,0.526459217475956,170352,50686
932.912871131812,0.521541697521136,189725,57093
938.069395988934,0.515018106445029,213674,65273
941.931807546869,0.510208025622918,229363,70846
945.789948746314,0.507577379697431,243321,75614
949.643819587268,0.501105368221465,255564,80611
953.493420069731,0.496691117589953,267061,85098
957.338750193702,0.492453475293965,278282,89543
961.179809959184,0.487717166222102,289054,94029
965.016599366174,0.483577882502397,299384,98322
968.849118414673,0.479792102147623,309249,102451
973.952501032798,0.475402322887325,322505,107928
977.775055911486,0.469462501469416,332184,112698
981.593340431682,0.466316093665007,340824,116470
985.407354593388,0.461675809075002,348438,120351
989.217098396603,0.458003235831511,355856,123957
993.022571841327,0.45346340990912,362417,127569
996.823774927561,0.450623330828908,367743,130293
1000.6207076553,0.445344155148804,373112,133812
1004.41337002455,0.442387448934899,377756,136403
1008.20176203532,0.438498471650081,381102,138849
1013.24630860312,0.433240314350179,384846,141921
1017.02473644407,0.430063078336454,387107,143803
1020.79889392653,0.426988249749325,388666,145408
1024.5687810505,0.422743875601718,389992,147337
1028.33439781597,0.419408478059561,390402,148629
1032.09574422296,0.415698797688375,390290,149861
1035.85282027145,0.411796752962076,390890,151446
1039.60562596146,0.410242061561521,391026,152042
1043.35416129297,0.406600228470826,390941,153289
1048.34556562178,0.402911345678729,390277,154334
1052.08413678348,0.398823653345213,389895,155641
1055.81843758669,0.396886320683777,389848,156318
1059.54846803141,0.393215379952251,389779,157617
1063.27422811764,0.391203885025014,390016,158445
1066.99571784538,0.387858188113098,389512,159464
1070.71293721462,0.386275420968016,390502,160453
1074.42588622538,0.383288157372256,391313,161896
1078.13456487764,0.381456997447574,392550,163094
1081.83897317142,0.37786398791248,394436,165239
1086.77154144991,0.375207073027513,396353,167061
1090.46598557387,0.373505581139994,398556,168649
1094.15615933934,0.371182983952883,401068,170622
1097.84206274632,0.369109345349862,403289,172388
1101.52369579481,0.366662175926031,406278,174647
1105.20105848481,0.365383091311055,409678,176628
1108.87415081632,0.363976742092615,413308,178771
1112.54297278934,0.361680617366415,416625,181161
1116.20752440387,0.360001145528882,420105,183382
1121.08695044336,0.357395573416287,425692,186939
1124.74153788807,0.356524654423296,430173,189286
1128.3918549743,0.355412778597408,434527,191692
1132.03790170203,0.354465253797921,439350,194243
1135.67967807127,0.353113358686779,444059,196937
1139.31718408202,0.35227244826795,449166,199588
1142.95041973428,0.350893729846084,454331,202525
1146.57938502805,0.349892878137331,459420,205266
1150.20407996333,0.349245620786801,464676,207924
1153.82450454012,0.348226575536147,470657,211095
1158.6450945293,0.347316129326146,478511,215068
1162.25555493627,0.346972295887531,484455,217912
1165.86174498476,0.346058452899745,490720,221195
1169.46366467475,0.3455389314521,497388,224469
1173.06131400625,0.345006432942925,504177,227812
1176.65469297927,0.344101251829111,511407,231561
1180.24380159379,0.343767271275608,518367,234893
1183.82863984982,0.343106552339212,526492,238938
1187.40920774736,0.342566722623853,534357,242809
1192.17665549754,0.341358515008247,544809,248248
1195.74725922527,0.340808807234748,552942,252273
1199.3135925945,0.340064552911753,561625,256674
1202.87565560525,0.33934936389471,569725,260805
1206.43344825751,0.338486408294796,577827,265040
1209.98697055127,0.336731296265336,586818,270254
1213.53622248654,0.335900613891087,595746,274891
1217.08120406333,0.334954138469955,603897,279260
1220.62191528162,0.333333180808164,612400,284251
1224.15835614142,0.33254373689167,620720,288637
1228.86696784128,0.331025060239416,631332,294600
1232.39344453127,0.33017548858378,639370,298935
1235.91565086277,0.3291475499148,646720,303088
1239.43358683578,0.328211690366438,653670,307006
1242.94725245029,0.32762406722361,660326,310552
1246.45664770632,0.326707117844255,667115,314408
1249.96177260386,0.326216692120085,672803,317447
1253.4626271429,0.325457489585196,678267,320585
1256.95921132345,0.324901601305663,683768,323599
1261.61468078432,0.324013779987472,693088,328681
1265.10130079506,0.323384045424213,700022,332451
1268.58365044731,0.322719786726228,706483,336033
1272.06172974107,0.322603127968222,713139,339290
1275.53553867634,0.322325591931559,718756,342181
1279.00507725312,0.321639110776364,724034,345239
1282.4703454714,0.321494381254836,729512,347967
1285.9313433312,0.320663421871636,733807,350686
1289.38807083251,0.320231492939756,738059,353069
1292.84052797532,0.319663596265916,741368,355116
1297.43716138587,0.319351938947233,746327,357748
1300.87965435887,0.319012589059313,749490,359545
1304.31787697338,0.318319026399698,751778,361219
1307.7518292294,0.318222384991541,754426,362572
1311.18151112693,0.318186399495904,756442,363571
1314.60692266597,0.31806129587304,758223,364532
1318.02806384652,0.31784700212228,759219,365191
1321.44493466858,0.317731411072218,760370,365842
1324.85753513215,0.31792096666714,761280,366120
1329.4010263037,0.317983313487308,761695,366267
1332.80366259745,0.317967620215943,761289,366085
1336.20202853272,0.318384196862366,761341,365759
1339.59612410949,0.318698526002415,760582,365130
1342.98594932777,0.319366237499979,759714,364153
1346.37150418756,0.32018204047294,757980,362640
1349.75278868886,0.321123827409164,755744,360787
1353.12980283167,0.321715326024885,752990,358983
1356.50254661599,0.322069761946556,750353,357434
1359.87102004182,0.322853477712897,747193,355287
1364.35567516305,0.323965510418296,744255,352985
1367.71418441907,0.324639020486038,742441,351579
1371.06842331659,0.325291136323836,739974,349885
1374.41839185563,0.326089698545483,735488,347125
1377.76409003617,0.32674278819569,729361,343716
1381.10551785823,0.327543140835324,723068,340123
1384.44267532179,0.329305325957656,717316,336051
1387.77556242686,0.330432806118223,711945,332670
1391.10417917344,0.33235800684939,706817,328813
1395.53569205567,0.335164470387591,701023,324017
1398.85434463244,0.338357657417791,697086,319837
1402.16872685072,0.341803317449935,693548,315699
1405.47883871051,0.34572916713479,690983,311701
1408.7846802118,0.350533267676702,688217,307038
1412.08625135461,0.355211456788532,685887,302720
1415.38355213892,0.359657288159685,683177,298453
1418.67658256475,0.36451045005062,681852,294564
1421.96534263208,0.368031517831672,679795,291304
1425.24983234092,0.371794840833676,678254,288136
1429.62250917284,0.375943638215056,676418,284624
1432.89703471187,0.37853080382509,675549,282570
1436.16728989241,0.381227578728892,674491,280381
1439.43327471445,0.382565034949045,673432,279080
1442.69498917801,0.383566115079312,672582,278086
1445.95243328308,0.384844531363398,671797,276945
1449.20560702965,0.385650342286992,670663,275965
1452.45451041774,0.38620673643284,668666,274791
1455.69914344733,0.38657675764408,666669,273737
1460.01867804025,0.386580984220705,663826,272567
1463.25334690003,0.386692455833132,661363,271486
1466.48374540132,0.386453134489854,658262,270362
1469.70987354412,0.385880042539158,655101,269419
1472.93173132843,0.385382851904474,652066,268478
1476.14931875425,0.384408604146983,648768,267720
1479.36263582158,0.383927114678211,645217,266550
1482.57168253042,0.383472346296105,641478,265283
1485.77645888076,0.382057846897412,637247,264393
1488.97696487262,0.381851599386621,633432,262935
1493.23766341522,0.3806172241156,626945,260983
1496.42820523726,0.37986418105033,622173,259446
1499.61447670082,0.379322053503312,617215,257700
1502.79647780588,0.378505016599529,612175,256077
1505.97420855245,0.377299412482053,606101,254241
1509.14766894053,0.376447053122062,600549,252407
1512.31685897012,0.375597175088322,594799,250480
1515.48177864122,0.375001393307921,587818,247880
1518.64242795382,0.374056575840646,582111,246008
1522.84998425743,0.373213288764777,573212,242718
1526.00066940022,0.372288584508973,566681,240464
1529.14708418453,0.371506581955403,559336,237775
1532.28922861034,0.371497287846343,551806,234579
1535.42710267766,0.370963036472226,544326,231684
1538.5607063865,0.370907275130648,536457,228364
1541.69003973684,0.37089739442324,527772,224672
1544.81510272869,0.370562476470538,519422,221288
1547.93589536205,0.370107336966425,510650,217779
1551.05241763692,0.370363669341383,502348,214112
1555.2011378902,0.37008004792516,490489,209194
1558.30769599526,0.369564554812372,482193,205900
1561.40998374183,0.370072462537394,473564,201979
1564.5080011299,0.369626126638085,464313,198237
1567.60174815948,0.369206326685563,454762,194347
1570.69122483058,0.369395671406945,445463,190290
1573.77643114318,0.369228925385578,436030,186332
1576.85736709729,0.36891926272239,426396,182345
1579.93403269291,0.368975036451661,417117,178354
1584.0296107072,0.368121079347469,404382,173249
1587.09631213301,0.368174750281935,394973,169197
1590.15874320033,0.367662286795572,386055,165572
1593.21690390916,0.36756056261429,376146,161360
1596.27079425949,0.36683816911003,367464,157898
1599.32041425134,0.36547038731288,358335,154461
1602.36576388469,0.365785355263787,349167,150400
1605.40684315956,0.365844064539889,340521,146656
1608.44365207593,0.365507179608215,331248,142773
1611.47619063381,0.364162784634204,321893,139171
1615.51293259778,0.364862477418833,310465,134014
1618.53550698585,0.364140860026552,301672,130435
1621.55381101543,0.36348860061925,292998,126875
1624.56784468652,0.364081359536006,284317,122948
1627.57760799912,0.363776579170357,275907,119395
1630.58310095323,0.364080521571269,267019,115468
1633.58432354884,0.364658126668525,258992,111848
1636.58127578597,0.36439829807977,250469,108232
1639.5739576646,0.365081144780072,242461,104607
1643.55755738958,0.367044505622337,231585,99464
1646.5402750984,0.368637566508186,223633,95697
1649.51872244873,0.369836177361485,215733,92062
1652.49289944057,0.369751072509185,207418,88531
1655.46280607392,0.373225351939586,199930,84655
1658.42844234878,0.374143661195955,191781,81033
1661.38980826515,0.375727986825306,183857,77402
1664.34690382303,0.377344250070674,175833,73749
1667.29972902242,0.379422389218166,166332,69431
1670.24828386331,0.377600961332584,156258,65500
1674.17304753796,0.378803478787216,140448,58710
1677.11163820905,0.378669124100611,126730,52992
1680.04595852164,0.380978125452402,112682,46868
1682.97600847574,0.378657135942617,98302,41106
1685.90178807136,0.381512133658649,84589,35140
1688.82329730848,0.38164074329098,72182,29977
1691.74053618711,0.386280606945293,61392,25225
1694.65350470725,0.388042070464343,52055,21302
1697.56220286889,0.384924257598991,43897,18093
1701.43382430455,0.396435628743625,35447,14228
