***Scan Config Information***,,,,,,,***Reference Scan Information***,,,,,,,,
Scan Config Name:,herbario,,,,,,Scan Config Name:,Local New Reference,,,,,,,
Scan Config Type:,Slew,Num Section:,1,,,,Scan Config Type:,Slew,Num Section:,1,,,,,
Section Config Type:,Column,,,,,,Section Config Type:,Column,,,,,,,
Start Wavelength (nm):,900,,,,,,Start Wavelength (nm):,900,,,,,,,
End Wavelength (nm):,1700,,,,,,End Wavelength (nm):,1700,,,,,,,
Pattern Width (nm):,7.03,,,,,,Pattern Width (nm):,7.03,,,,,,,
Exposure (ms):,0.635,,,,,,Exposure (ms):,0.635,,,,,,,
Digital Resolution:,228,,,,,,Digital Resolution:,228,,,,,,,
Num Repeats:,20,,,,,,Num Repeats:,20,,,,,,,
PGA Gain:,64,(FixedPGA),,,,,PGA Gain:,64,(AutoPGA),,,,,,
System Temp (C):,42.2,,,,,,System Temp (C):,41.95,,,,,,,
Humidity (%):,21.8,,,,,,Humidity (%):,21.89,,,,,,,
Lamp Indicator:,1126,,,,,,Lamp Indicator:,1130,,,,,,,
Data Date-Time:,2023/11/10T15:19:40,,,,,,Data Date-Time:,2023/11/10T15:16:30,,,,,,,
Total Measurement Time in sec:,6.7352608,,,,,,,,,,,,,,
,,,,,,,,,,,,,,,
***General Information***,,,,,,,***Calibration Coefficients***,,,,,,,,
Model Name:,NIR-S-G1,,,,,,Shift Vector Coefficients:,-5.08535400046452,0.0413457073195706,-8.39863846568903E-05,,,,,
Serial Number:,B07R011,(95UB122GC0AB07R011),,,,,Pixel to Wavelength Coefficients:,1794.37724621797,-0.920219689099738,-0.000237242138379873,,,,,
GUI Version:,3.9.4,Revision:,526,,,,Versions (Cal/Ref/Cfg):,1,3,1,,,,,
TIVA Version:,2.4.7,,,,,,***Lamp Usage ***,,,,,,,,
DLPC Version:,2.3.1,,,,,,Total Time(hh:mm:ss):,1hr 9min 46sec ,,,,,,,
UUID:,DE:67:0C:88:67:2B:47:21,,,,,,***Device/Error/Activation Status***,,,,,,,,
Main Board Version:,D,,,,,,Device Status:,0x00000001,Activation Status:,Activated,,,,,
Detector Board Version:,B,,,,,,Error status:,0x00000000,Error Code:,0x00000000000000000000000000000000,,,,,
,,,,,,,,,Error Details:,Not found,,,,,
***Scan Data***,,,,,,,,,,,,,,,
Wavelength (nm),Absorbance (AU),Reference Signal (unitless),Sample Signal (unitless)
901.81429527209,0.33546666829788,86933,40153
905.716563509274,0.332778459926792,93921,43650
909.614561387966,0.332584093392156,101856,47359
913.508288908168,0.3275937214175,110783,52105
917.397746069878,0.326219826664837,121700,57421
921.282932873098,0.321985824337435,135012,64326
925.163849317827,0.321903253828589,151516,72203
929.040495404065,0.319523174490899,170024,81468
932.912871131812,0.315769950562222,189239,91462
938.069395988934,0.313830937183481,213289,103547
941.931807546869,0.312124442095284,229796,112000
945.789948746314,0.310972426580131,243845,119163
949.643819587268,0.308875987189471,256537,125972
953.493420069731,0.306176655818679,268066,132454
957.338750193702,0.304831813667371,279607,138585
961.179809959184,0.302112791435047,290347,144812
965.016599366174,0.301958343365227,300658,150008
968.849118414673,0.299981913482683,310817,155784
973.952501032798,0.297923120844242,323839,163082
977.775055911486,0.29689514737734,333462,168326
981.593340431682,0.296044506069499,342120,173035
985.407354593388,0.29434883663007,349935,177680
989.217098396603,0.294142094117699,357491,181603
993.022571841327,0.29195093099974,363544,185612
996.823774927561,0.291158858042755,368909,188695
1000.6207076553,0.29027448959368,374601,191997
1004.41337002455,0.288820100596482,379192,195002
1008.20176203532,0.287327110986656,382716,197492
1013.24630860312,0.28643350700339,386269,199736
1017.02473644407,0.285618814954966,388454,201243
1020.79889392653,0.284399268966322,390252,202743
1024.5687810505,0.282954270097724,391231,203929
1028.33439781597,0.282634668842119,392034,204498
1032.09574422296,0.281680323861219,391908,204882
1035.85282027145,0.280884877573372,392346,205487
1039.60562596146,0.279818706683616,392163,205896
1043.35416129297,0.280050389198611,392519,205973
1048.34556562178,0.277846558896223,391539,206504
1052.08413678348,0.277824650249408,391542,206516
1055.81843758669,0.277221660840961,391012,206523
1059.54846803141,0.276317607842662,391051,206974
1063.27422811764,0.276125844587509,391071,207076
1066.99571784538,0.275097948375007,390951,207503
1070.71293721462,0.274745164219545,391556,207993
1074.42588622538,0.274382094540877,392553,208697
1078.13456487764,0.273584681515366,393870,209782
1081.83897317142,0.273698362549099,396007,210865
1086.77154144991,0.272492822072295,397696,212353
1090.46598557387,0.272546370416087,399929,213519
1094.15615933934,0.272179589860718,402567,215109
1097.84206274632,0.271405359738056,404796,216686
1101.52369579481,0.271507416815718,407978,218338
1105.20105848481,0.271145033638735,411424,220366
1108.87415081632,0.270603062312822,414864,222486
1112.54297278934,0.270210824618419,417977,224358
1116.20752440387,0.270100640971245,422138,226649
1121.08695044336,0.269815253175282,427506,229682
1124.74153788807,0.26950109459835,431737,232123
1128.3918549743,0.269849792112727,436568,234532
1132.03790170203,0.26928035350022,441177,237319
1135.67967807127,0.26945181236828,446114,239880
1139.31718408202,0.269098069677268,451043,242728
1142.95041973428,0.269089951365302,456113,245461
1146.57938502805,0.269164532881435,461568,248354
1150.20407996333,0.269123919303927,466901,251247
1153.82450454012,0.268901751128846,472721,254509
1158.6450945293,0.269848655685504,480830,258311
1162.25555493627,0.270312086069901,486956,261323
1165.86174498476,0.269581561009364,493216,265128
1169.46366467475,0.269752183146682,500076,268710
1173.06131400625,0.26966664480519,506661,272302
1176.65469297927,0.269676141487794,514180,276337
1180.24380159379,0.270092064023004,521318,279905
1183.82863984982,0.269619603060235,528993,284335
1187.40920774736,0.269771381559601,537404,288755
1192.17665549754,0.269188388124316,547621,294640
1195.74725922527,0.268982001653593,555650,299102
1199.3135925945,0.268794975212077,564467,303979
1202.87565560525,0.268248169703797,572605,308750
1206.43344825751,0.267609562617614,580960,313716
1209.98697055127,0.26671854828491,589638,319056
1213.53622248654,0.265966033975135,598312,324311
1217.08120406333,0.265143496004509,606930,329606
1220.62191528162,0.263938833116189,615341,335102
1224.15835614142,0.262743995296393,623735,340609
1228.86696784128,0.261616620688277,634202,347225
1232.39344453127,0.260793122042693,642154,352246
1235.91565086277,0.260058138024213,649631,356951
1239.43358683578,0.259266304864417,656419,361339
1242.94725245029,0.258437710004216,663347,365850
1246.45664770632,0.257982055593605,669920,369863
1249.96177260386,0.256770837570163,675243,373843
1253.4626271429,0.256419301704869,680896,377278
1256.95921132345,0.25596271591458,686395,380725
1261.61468078432,0.255449215739738,695659,386320
1265.10130079506,0.254711853227762,702750,390921
1268.58365044731,0.25483866974606,709596,394614
1272.06172974107,0.254138600823985,715979,398806
1275.53553867634,0.253646929572764,721379,402269
1279.00507725312,0.253075926351572,726617,405723
1282.4703454714,0.252882668383474,731972,408895
1285.9313433312,0.252410720787239,736259,411737
1289.38807083251,0.252023768729187,740277,414353
1292.84052797532,0.251738121256359,743836,416619
1297.43716138587,0.251043885786733,748443,419870
1300.87965435887,0.251153225117566,751848,421674
1304.31787697338,0.250633079145695,754362,423591
1307.7518292294,0.250520887931888,756617,424967
1311.18151112693,0.250507524802373,758780,426195
1314.60692266597,0.250142937252148,760237,427372
1318.02806384652,0.250359102830169,761573,427910
1321.44493466858,0.250319688866876,762488,428463
1324.85753513215,0.250310410266108,762986,428752
1329.4010263037,0.25068918938414,763967,428929
1332.80366259745,0.250981178754529,763636,428455
1336.20202853272,0.25129078833307,763246,427931
1339.59612410949,0.252282072993526,763038,426839
1342.98594932777,0.252993774225039,762019,425571
1346.37150418756,0.253640333350362,760208,423928
1349.75278868886,0.254020094635664,758048,422354
1353.12980283167,0.255006055761339,755405,419927
1356.50254661599,0.256186711194039,753273,417605
1359.87102004182,0.256591474552222,750025,415417
1364.35567516305,0.257803226407614,747196,412697
1367.71418441907,0.258505435445504,745558,411127
1371.06842331659,0.25955245664833,742524,408468
1374.41839185563,0.260417524751978,738052,405200
1377.76409003617,0.261237843452681,731458,400822
1381.10551785823,0.262907444662442,725517,396041
1384.44267532179,0.264806672203281,719738,391172
1387.77556242686,0.266668286176935,714119,386458
1391.10417917344,0.26921291048922,708994,381443
1395.53569205567,0.273773032105818,703196,374372
1398.85434463244,0.277658113102834,699546,369112
1402.16872685072,0.282526670799189,695858,363073
1405.47883871051,0.288282533382123,693118,356882
1408.7846802118,0.294504368548361,690258,350354
1412.08625135461,0.301125989651728,687752,343800
1415.38355213892,0.307163251154633,685227,337809
1418.67658256475,0.313046357892223,683305,332329
1421.96534263208,0.319126781346338,681888,327029
1425.24983234092,0.323951435242639,680374,322698
1429.62250917284,0.329609195666208,678500,317644
1432.89703471187,0.333513354454709,677717,314438
1436.16728989241,0.336664014474833,676260,311494
1439.43327471445,0.338642148390589,675535,309746
1442.69498917801,0.340217092778159,674579,308188
1445.95243328308,0.341101953030983,673733,307175
1449.20560702965,0.341617993964641,672606,306297
1452.45451041774,0.341794675284203,670729,305318
1455.69914344733,0.340918908840874,668115,304742
1460.01867804025,0.340385906887487,665708,304017
1463.25334690003,0.33948079984198,663035,303428
1466.48374540132,0.339348147377676,660399,302314
1469.70987354412,0.337748097165655,656917,301830
1472.93173132843,0.336265824100166,653861,301453
1476.14931875425,0.334979467114802,650502,300794
1479.36263582158,0.333450714685989,646990,300225
1482.57168253042,0.331720035048776,642968,299550
1485.77645888076,0.330426522578241,639057,298616
1488.97696487262,0.329262051296818,635077,297553
1493.23766341522,0.327066713148825,628630,296025
1496.42820523726,0.325464367130093,623666,294773
1499.61447670082,0.324247775440588,618860,293322
1502.79647780588,0.322964856088032,613673,291724
1505.97420855245,0.321105993233758,607887,290213
1509.14766894053,0.320025795489492,602173,288201
1512.31685897012,0.31829624651909,596171,286467
1515.48177864122,0.317292092344283,589593,283962
1518.64242795382,0.315843917164183,583299,281869
1522.84998425743,0.314629613348282,574685,278484
1526.00066940022,0.313517675906226,568047,275973
1529.14708418453,0.312639994175542,560904,273054
1532.28922861034,0.311950298563069,553170,269717
1535.42710267766,0.311178298326726,545409,266406
1538.5607063865,0.310844696366353,537597,262792
1541.69003973684,0.309897652360068,529204,259254
1544.81510272869,0.309456427021225,520828,255410
1547.93589536205,0.309113760778218,512163,251359
1551.05241763692,0.308290787558935,503510,247581
1555.2011378902,0.307916323434222,491949,242105
1558.30769599526,0.307088017524734,483242,238274
1561.40998374183,0.306802867881691,474684,234208
1564.5080011299,0.306228604536852,465590,230025
1567.60174815948,0.306149255392842,456123,225389
1570.69122483058,0.305926972241794,446917,220953
1573.77643114318,0.305332333930663,437125,216408
1576.85736709729,0.304812015842012,427882,212086
1579.93403269291,0.30404166470005,418196,207653
1584.0296107072,0.303845311294116,405631,201505
1587.09631213301,0.302754593228141,396401,197415
1590.15874320033,0.302158898991269,387131,193063
1593.21690390916,0.302079040304273,377601,188345
1596.27079425949,0.300805102253116,368747,184469
1599.32041425134,0.299877214209981,359682,180319
1602.36576388469,0.299565065450813,350418,175801
1605.40684315956,0.298670406962372,341597,171729
1608.44365207593,0.298382084660577,332425,167229
1611.47619063381,0.297361004975768,323670,163208
1615.51293259778,0.296859946957952,311770,157389
1618.53550698585,0.296337742363626,302866,153078
1621.55381101543,0.296078106143244,294487,148932
1624.56784468652,0.296536920415707,285786,144379
1627.57760799912,0.295050561701456,277061,140451
1630.58310095323,0.295746941413708,268650,135969
1633.58432354884,0.295808653265108,260187,131667
1636.58127578597,0.296027152099351,251854,127386
1639.5739576646,0.296076295436829,243732,123264
1643.55755738958,0.296603246382714,232892,117639
1646.5402750984,0.298274100735239,224950,113191
1649.51872244873,0.298793747114731,216952,109036
1652.49289944057,0.299601076880582,209065,104877
1655.46280607392,0.301284550625668,201378,100630
1658.42844234878,0.302725076797769,194072,96658
1661.38980826515,0.30156012582196,186077,92925
1664.34690382303,0.30302709217135,178294,88738
1667.29972902242,0.30617437934512,170014,84006
1670.24828386331,0.304051182139964,160839,79862
1674.17304753796,0.305266641950129,146583,72580
1677.11163820905,0.304216731787461,134594,66805
1680.04595852164,0.306278982933488,121530,60035
1682.97600847574,0.30673762987248,107917,53254
1685.90178807136,0.306894706967771,94459,46596
1688.82329730848,0.309901354617133,81059,39710
1691.74053618711,0.308880524439784,69275,34017
1694.65350470725,0.312153988286641,58801,28657
1697.56220286889,0.313934476597309,49596,24072
1701.43382430455,0.315075623644419,39970,19349
