***Scan Config Information***,,,,,,,***Reference Scan Information***,,,,,,,,
Scan Config Name:,herbario,,,,,,Scan Config Name:,Local New Reference,,,,,,,
Scan Config Type:,Slew,Num Section:,1,,,,Scan Config Type:,Slew,Num Section:,1,,,,,
Section Config Type:,Column,,,,,,Section Config Type:,Column,,,,,,,
Start Wavelength (nm):,900,,,,,,Start Wavelength (nm):,900,,,,,,,
End Wavelength (nm):,1700,,,,,,End Wavelength (nm):,1700,,,,,,,
Pattern Width (nm):,7.03,,,,,,Pattern Width (nm):,7.03,,,,,,,
Exposure (ms):,0.635,,,,,,Exposure (ms):,0.635,,,,,,,
Digital Resolution:,228,,,,,,Digital Resolution:,228,,,,,,,
Num Repeats:,20,,,,,,Num Repeats:,20,,,,,,,
PGA Gain:,64,(FixedPGA),,,,,PGA Gain:,64,(AutoPGA),,,,,,
System Temp (C):,41.76,,,,,,System Temp (C):,41.43,,,,,,,
Humidity (%):,24.56,,,,,,Humidity (%):,24.85,,,,,,,
Lamp Indicator:,1126,,,,,,Lamp Indicator:,1127,,,,,,,
Data Date-Time:,2023/11/10T14:19:51,,,,,,Data Date-Time:,2023/11/10T14:16:46,,,,,,,
Total Measurement Time in sec:,6.8057122,,,,,,,,,,,,,,
,,,,,,,,,,,,,,,
***General Information***,,,,,,,***Calibration Coefficients***,,,,,,,,
Model Name:,NIR-S-G1,,,,,,Shift Vector Coefficients:,-5.08535400046452,0.0413457073195706,-8.39863846568903E-05,,,,,
Serial Number:,B07R011,(95UB122GC0AB07R011),,,,,Pixel to Wavelength Coefficients:,1794.37724621797,-0.920219689099738,-0.000237242138379873,,,,,
GUI Version:,3.9.4,Revision:,526,,,,Versions (Cal/Ref/Cfg):,1,3,1,,,,,
TIVA Version:,2.4.7,,,,,,***Lamp Usage ***,,,,,,,,
DLPC Version:,2.3.1,,,,,,Total Time(hh:mm:ss):,59min 58sec ,,,,,,,
UUID:,DE:67:0C:88:67:2B:47:21,,,,,,***Device/Error/Activation Status***,,,,,,,,
Main Board Version:,D,,,,,,Device Status:,0x00000001,Activation Status:,Activated,,,,,
Detector Board Version:,B,,,,,,Error status:,0x00000000,Error Code:,0x00000000000000000000000000000000,,,,,
,,,,,,,,,Error Details:,Not found,,,,,
***Scan Data***,,,,,,,,,,,,,,,
Wavelength (nm),Absorbance (AU),Reference Signal (unitless),Sample Signal (unitless)
901.81429527209,0.173040191669893,87304,58613
905.716563509274,0.174295193355243,94591,63322
909.614561387966,0.175843481046631,102507,68377
913.508288908168,0.17537673941113,111442,74417
917.397746069878,0.173736836317825,122517,82122
921.282932873098,0.174737548213918,135975,90933
925.163849317827,0.17386144843743,152306,102060
929.040495404065,0.173757607875459,170846,114511
932.912871131812,0.174162049078319,190474,127548
938.069395988934,0.17429663035048,214691,143720
941.931807546869,0.174120933964002,230804,154569
945.789948746314,0.174841085071352,245076,163855
949.643819587268,0.174006315214411,257569,172539
953.493420069731,0.17435971760124,269338,180276
957.338750193702,0.17489022778854,280937,187810
961.179809959184,0.174793105539561,291624,194998
965.016599366174,0.175205589429613,302242,201906
968.849118414673,0.175002501814172,312338,208748
973.952501032798,0.175064676579141,325574,217563
977.775055911486,0.175250740801079,335271,223947
981.593340431682,0.175361690791379,344078,229771
985.407354593388,0.175457688742884,351733,234831
989.217098396603,0.175201717895398,359452,240126
993.022571841327,0.174981557056342,365651,244391
996.823774927561,0.17514360780559,371035,247897
1000.6207076553,0.174988069257223,376462,251613
1004.41337002455,0.174801010891626,381135,254846
1008.20176203532,0.175173076049385,384846,257107
1013.24630860312,0.175413358833111,388249,259237
1017.02473644407,0.174940363806299,390609,261097
1020.79889392653,0.174625201255381,392290,262411
1024.5687810505,0.174863099880006,393546,263107
1028.33439781597,0.174573458517169,393747,263417
1032.09574422296,0.174491301391976,393949,263602
1035.85282027145,0.174849317770123,394585,263810
1039.60562596146,0.174092725244904,394155,263982
1043.35416129297,0.174653317534345,394546,263903
1048.34556562178,0.174591619073221,393898,263507
1052.08413678348,0.17425547479129,393532,263466
1055.81843758669,0.174708376488815,393349,263069
1059.54846803141,0.174834860084973,393317,262971
1063.27422811764,0.173650277701182,393248,263643
1066.99571784538,0.174542593384505,393444,263233
1070.71293721462,0.173914753053308,394095,264050
1074.42588622538,0.17345636106634,394954,264905
1078.13456487764,0.173406311507994,396277,265823
1081.83897317142,0.173041368454947,398022,267218
1086.77154144991,0.172988084339202,400228,268732
1090.46598557387,0.1725364557741,402673,270655
1094.15615933934,0.171649811951086,405038,272801
1097.84206274632,0.171600404983291,407486,274481
1101.52369579481,0.171146321067801,410437,276758
1105.20105848481,0.171133810094715,413707,278971
1108.87415081632,0.170911729422201,417413,281614
1112.54297278934,0.170744897075834,420739,283967
1116.20752440387,0.170504601552152,424389,286589
1121.08695044336,0.170315747821953,429881,290424
1124.74153788807,0.170369339221725,434575,293559
1128.3918549743,0.170163100400166,439111,296764
1132.03790170203,0.170439720237321,443840,299769
1135.67967807127,0.170615895196701,448677,302913
1139.31718408202,0.170611309864816,453615,306250
1142.95041973428,0.171111972517101,459232,309685
1146.57938502805,0.171507788162921,464574,313002
1150.20407996333,0.171759327759373,469597,316203
1153.82450454012,0.172544686920621,475748,319766
1158.6450945293,0.172956397510349,483891,324931
1162.25555493627,0.173389446108693,489861,328612
1165.86174498476,0.174302208873502,496495,332363
1169.46366467475,0.174466763615542,503263,336766
1173.06131400625,0.174821149420395,509933,340951
1176.65469297927,0.1748271965038,517179,345791
1180.24380159379,0.175284391487029,524304,350186
1183.82863984982,0.175956699167584,532458,355082
1187.40920774736,0.176574873177763,540459,359905
1192.17665549754,0.176935634447745,550877,366538
1195.74725922527,0.176938943032497,559242,372101
1199.3135925945,0.177185962814549,567831,377601
1202.87565560525,0.177617224336207,576194,382782
1206.43344825751,0.177826514210824,584562,388154
1209.98697055127,0.177689879169185,593872,394460
1213.53622248654,0.177298433341318,602177,400337
1217.08120406333,0.177374358973765,610999,406131
1220.62191528162,0.176716690219804,619149,412172
1224.15835614142,0.176092642992133,627623,418414
1228.86696784128,0.175785686788455,638627,426051
1232.39344453127,0.175508418808006,646343,431474
1235.91565086277,0.175156972419325,653792,436800
1239.43358683578,0.175078163247853,660897,441627
1242.94725245029,0.174920880858266,667771,446382
1246.45664770632,0.174668152843384,674091,450869
1249.96177260386,0.174842838494382,680161,454746
1253.4626271429,0.174504584034501,685357,458577
1256.95921132345,0.174722109379984,691357,462360
1261.61468078432,0.174428154001255,700587,468850
1265.10130079506,0.174204198046028,707647,473819
1268.58365044731,0.174534949717776,714492,478038
1272.06172974107,0.174147984036631,720580,482541
1275.53553867634,0.174496649116868,726660,486222
1279.00507725312,0.174438640623943,731926,489811
1282.4703454714,0.174067860755848,736951,493595
1285.9313433312,0.174253233154711,741539,496456
1289.38807083251,0.17401448466973,745504,499385
1292.84052797532,0.174232169889015,749204,501612
1297.43716138587,0.173955858812562,753898,505076
1300.87965435887,0.173910660016412,757106,507278
1304.31787697338,0.173963564263178,759791,509015
1307.7518292294,0.173957443818295,762073,510551
1311.18151112693,0.173980425262883,764233,511971
1314.60692266597,0.174120221691264,765917,512934
1318.02806384652,0.174156147543092,766733,513438
1321.44493466858,0.174508928634621,768199,514002
1324.85753513215,0.174814998770295,768938,514134
1329.4010263037,0.175141161900363,769152,513891
1332.80366259745,0.175494638416022,769251,513539
1336.20202853272,0.176121186546848,769139,512724
1339.59612410949,0.176730199433834,768638,511672
1342.98594932777,0.17712525523094,767231,510271
1346.37150418756,0.177694525691243,765431,508407
1349.75278868886,0.178510011672237,763337,506065
1353.12980283167,0.179066476392533,760259,503379
1356.50254661599,0.179725081547317,758076,501173
1359.87102004182,0.180528609383734,755458,498519
1364.35567516305,0.181219361642643,752186,495571
1367.71418441907,0.181935930540186,750503,493647
1371.06842331659,0.182392303607577,747434,491112
1374.41839185563,0.182931714166464,742481,487252
1377.76409003617,0.183894292613751,736717,482399
1381.10551785823,0.184728099598457,730551,477444
1384.44267532179,0.185642929611028,724667,472602
1387.77556242686,0.186926489857796,719104,467590
1391.10417917344,0.188525995728102,714075,462613
1395.53569205567,0.190525799582997,708203,456701
1398.85434463244,0.193097795750941,704504,451633
1402.16872685072,0.195464221871981,700944,446909
1405.47883871051,0.198555285167423,698190,441996
1408.7846802118,0.201661691688034,695185,436957
1412.08625135461,0.204961034046513,692814,432171
1415.38355213892,0.208121083954641,689990,427289
1418.67658256475,0.211295001102208,688468,423242
1421.96534263208,0.214228317189168,686814,419383
1425.24983234092,0.216784955226095,685166,415921
1429.62250917284,0.219838137121215,683427,411959
1432.89703471187,0.221393359780337,682792,410105
1436.16728989241,0.222599640390277,681140,407978
1439.43327471445,0.223641638120821,680378,406545
1442.69498917801,0.224675609677309,679465,405034
1445.95243328308,0.22513085741304,678767,404194
1449.20560702965,0.225701547147024,677524,402924
1452.45451041774,0.225938960786884,675603,401562
1455.69914344733,0.226190751845397,673367,400001
1460.01867804025,0.226512670215832,670529,398020
1463.25334690003,0.226458373247042,668124,396642
1466.48374540132,0.226398680510269,664945,394809
1469.70987354412,0.226442751856065,661989,393014
1472.93173132843,0.225759948378993,658529,391575
1476.14931875425,0.225507951325379,655167,389802
1479.36263582158,0.225433173660846,651542,387712
1482.57168253042,0.224898087567448,647680,385889
1485.77645888076,0.224770533539714,643592,383566
1488.97696487262,0.224664669259803,639649,381309
1493.23766341522,0.223723273554845,633008,378169
1496.42820523726,0.223201351048196,628048,375657
1499.61447670082,0.222941742003222,623290,373034
1502.79647780588,0.222191501845945,617734,370348
1505.97420855245,0.221364711419989,612169,367711
1509.14766894053,0.220928167842968,606513,364680
1512.31685897012,0.22035446034191,600389,361475
1515.48177864122,0.219586502741767,593701,358081
1518.64242795382,0.218582485754479,587700,355282
1522.84998425743,0.217974584349871,578911,350459
1526.00066940022,0.217389495285152,572183,346853
1529.14708418453,0.216747419249506,564851,342915
1532.28922861034,0.216401504265913,557319,338612
1535.42710267766,0.215644880307579,549159,334236
1538.5607063865,0.21523352992284,541392,329821
1541.69003973684,0.214584652907853,532800,325072
1544.81510272869,0.214064556924582,524144,320174
1547.93589536205,0.213402024067822,515589,315429
1551.05241763692,0.213227924681179,506721,310128
1555.2011378902,0.212838237641646,495432,303491
1558.30769599526,0.212390544942895,486559,298363
1561.40998374183,0.212200404135226,477741,293084
1564.5080011299,0.211906189129753,468657,287706
1567.60174815948,0.211425877373102,458957,282063
1570.69122483058,0.210950308244105,449720,276689
1573.77643114318,0.211363973141033,440309,270641
1576.85736709729,0.211197734932784,431004,265023
1579.93403269291,0.210755918022184,421112,259204
1584.0296107072,0.209943259146885,408286,251780
1587.09631213301,0.209002718649395,398678,246388
1590.15874320033,0.20913340693301,389912,240898
1593.21690390916,0.208896887853139,379835,234800
1596.27079425949,0.20780295933377,371105,229982
1599.32041425134,0.207331626592115,361763,224436
1602.36576388469,0.206821863625952,352854,219166
1605.40684315956,0.206190632230759,343530,213685
1608.44365207593,0.205561424891032,334144,208148
1611.47619063381,0.205344161162245,325351,202772
1615.51293259778,0.204895916877313,313603,195652
1618.53550698585,0.204154472992714,304733,190443
1621.55381101543,0.204646320970478,296234,184922
1624.56784468652,0.204151138435867,287163,179464
1627.57760799912,0.20335359562825,278786,174549
1630.58310095323,0.203606533777616,270170,169056
1633.58432354884,0.203302059854131,261523,163760
1636.58127578597,0.203590425187458,253259,158480
1639.5739576646,0.2028406261407,244935,153536
1643.55755738958,0.205077920985989,234103,145992
1646.5402750984,0.20609048313625,226200,140735
1649.51872244873,0.206339178894532,218213,135688
1652.49289944057,0.206466331821267,209907,130485
1655.46280607392,0.207135155104546,202265,125541
1658.42844234878,0.208320370854505,194761,120554
1661.38980826515,0.209624545567686,187094,115461
1664.34690382303,0.211220483175434,178854,109971
1667.29972902242,0.209925530031648,169729,104672
1670.24828386331,0.211442541262104,160986,98934
1674.17304753796,0.212253720324467,146230,89698
1677.11163820905,0.214256496005756,133802,81697
1680.04595852164,0.214879487924645,120399,73408
1682.97600847574,0.216227046659211,106407,64676
1685.90178807136,0.217258331524046,92855,56305
1688.82329730848,0.218736227248498,79758,48199
1691.74053618711,0.219992810128498,68105,41038
1694.65350470725,0.219249414379379,57581,34756
1697.56220286889,0.221385350034922,48708,29256
1701.43382430455,0.220789738102969,39048,23486
