***Scan Config Information***,,,,,,,***Reference Scan Information***,,,,,,,,
Scan Config Name:,herbario,,,,,,Scan Config Name:,Local New Reference,,,,,,,
Scan Config Type:,Slew,Num Section:,1,,,,Scan Config Type:,Slew,Num Section:,1,,,,,
Section Config Type:,Column,,,,,,Section Config Type:,Column,,,,,,,
Start Wavelength (nm):,900,,,,,,Start Wavelength (nm):,900,,,,,,,
End Wavelength (nm):,1700,,,,,,End Wavelength (nm):,1700,,,,,,,
Pattern Width (nm):,7.03,,,,,,Pattern Width (nm):,7.03,,,,,,,
Exposure (ms):,0.635,,,,,,Exposure (ms):,0.635,,,,,,,
Digital Resolution:,228,,,,,,Digital Resolution:,228,,,,,,,
Num Repeats:,20,,,,,,Num Repeats:,20,,,,,,,
PGA Gain:,64,(FixedPGA),,,,,PGA Gain:,64,(AutoPGA),,,,,,
System Temp (C):,39.8,,,,,,System Temp (C):,40.85,,,,,,,
Humidity (%):,21.31,,,,,,Humidity (%):,21.45,,,,,,,
Lamp Indicator:,1107,,,,,,Lamp Indicator:,1118,,,,,,,
Data Date-Time:,2023/11/13T12:24:10,,,,,,Data Date-Time:,2023/11/13T12:13:25,,,,,,,
Total Measurement Time in sec:,6.7560102,,,,,,,,,,,,,,
,,,,,,,,,,,,,,,
***General Information***,,,,,,,***Calibration Coefficients***,,,,,,,,
Model Name:,NIR-S-G1,,,,,,Shift Vector Coefficients:,-5.08535400046452,0.0413457073195706,-8.39863846568903E-05,,,,,
Serial Number:,B07R011,(95UB122GC0AB07R011),,,,,Pixel to Wavelength Coefficients:,1794.37724621797,-0.920219689099738,-0.000237242138379873,,,,,
GUI Version:,3.9.4,Revision:,526,,,,Versions (Cal/Ref/Cfg):,1,3,1,,,,,
TIVA Version:,2.4.7,,,,,,***Lamp Usage ***,,,,,,,,
DLPC Version:,2.3.1,,,,,,Total Time(hh:mm:ss):,1hr 59min 51sec ,,,,,,,
UUID:,DE:67:0C:88:67:2B:47:21,,,,,,***Device/Error/Activation Status***,,,,,,,,
Main Board Version:,D,,,,,,Device Status:,0x00000001,Activation Status:,Activated,,,,,
Detector Board Version:,B,,,,,,Error status:,0x00000000,Error Code:,0x00000000000000000000000000000000,,,,,
,,,,,,,,,Error Details:,Not found,,,,,
***Scan Data***,,,,,,,,,,,,,,,
Wavelength (nm),Absorbance (AU),Reference Signal (unitless),Sample Signal (unitless)
901.81429527209,0.182467797519234,87477,57468
905.716563509274,0.18180104123129,95129,62591
909.614561387966,0.181423067501682,102730,67651
913.508288908168,0.18001069581142,111640,73758
917.397746069878,0.177975680062027,122643,81408
921.282932873098,0.176453415108326,136165,90701
925.163849317827,0.176041590287775,153008,102017
929.040495404065,0.174813815508481,171603,114739
932.912871131812,0.173355599226454,190933,128093
938.069395988934,0.173125502810309,215111,144390
941.931807546869,0.1727559336286,231729,155677
945.789948746314,0.172159056902965,246005,165495
949.643819587268,0.171377834505925,258702,174350
953.493420069731,0.170633852419119,270493,182609
957.338750193702,0.170053322276847,282108,190705
961.179809959184,0.168807620784889,293006,198641
965.016599366174,0.167981925097335,303138,205901
968.849118414673,0.167178138341733,313355,213235
973.952501032798,0.167088716020181,326634,222317
977.775055911486,0.166896106935647,336568,229180
981.593340431682,0.166302486623425,345201,235380
985.407354593388,0.165883358093802,353278,241120
989.217098396603,0.164910603511567,360563,246644
993.022571841327,0.164208447581654,366903,251387
996.823774927561,0.16386753554574,372609,255497
1000.6207076553,0.163477699644919,378355,259670
1004.41337002455,0.162674496138143,382816,263218
1008.20176203532,0.162046065851186,386262,265972
1013.24630860312,0.161598824295981,390047,268855
1017.02473644407,0.161422577370541,392341,270546
1020.79889392653,0.160514335344186,394064,272303
1024.5687810505,0.160192080181083,395212,273299
1028.33439781597,0.159313302989012,395660,274163
1032.09574422296,0.158628232618646,395813,274702
1035.85282027145,0.158100353205619,396105,275239
1039.60562596146,0.158232566912962,395978,275067
1043.35416129297,0.15792176852427,396250,275453
1048.34556562178,0.156946966985704,395297,275408
1052.08413678348,0.156515929881803,395173,275595
1055.81843758669,0.156097033690592,394888,275662
1059.54846803141,0.155599416772464,394742,275876
1063.27422811764,0.155333122052721,394756,276055
1066.99571784538,0.155334122939917,394704,276018
1070.71293721462,0.155025165541965,395355,276670
1074.42588622538,0.154233796325841,396277,277821
1078.13456487764,0.154424692529013,397824,278783
1081.83897317142,0.15394123319921,399491,280263
1086.77154144991,0.153574339444008,401186,281690
1090.46598557387,0.153802954936493,403861,283419
1094.15615933934,0.153141066310054,406120,285439
1097.84206274632,0.15301980407052,408419,287135
1101.52369579481,0.153344882105192,411818,289308
1105.20105848481,0.152608619327565,414548,291720
1108.87415081632,0.152845422759667,418286,294190
1112.54297278934,0.1531976906768,421857,296461
1116.20752440387,0.153002906629502,425575,299208
1121.08695044336,0.152631712496989,430660,303042
1124.74153788807,0.153674327174277,435577,305767
1128.3918549743,0.153471303554144,440048,309050
1132.03790170203,0.154048773243158,444888,312034
1135.67967807127,0.154171998199476,449578,315234
1139.31718408202,0.154310778339011,454421,318528
1142.95041973428,0.154375016204179,459729,322201
1146.57938502805,0.154879685440294,465139,325614
1150.20407996333,0.155205905023131,470259,328951
1153.82450454012,0.155962997228514,476318,332609
1158.6450945293,0.156552917949165,484266,337700
1162.25555493627,0.157194676425856,490438,341499
1165.86174498476,0.157268216271665,496821,345885
1169.46366467475,0.157358606960366,503309,350329
1173.06131400625,0.157730242929192,510163,354796
1176.65469297927,0.158080415415796,517518,359621
1180.24380159379,0.158743594216075,524845,364156
1183.82863984982,0.158835851416644,533012,369744
1187.40920774736,0.158933616596273,540862,375105
1192.17665549754,0.159080370969394,551316,382226
1195.74725922527,0.15918479252728,559688,387937
1199.3135925945,0.158895647870332,568204,394102
1202.87565560525,0.158925441347375,576502,399830
1206.43344825751,0.158734855293351,584810,405770
1209.98697055127,0.158257965002013,593906,412534
1213.53622248654,0.158318020449832,602705,418588
1217.08120406333,0.157543043085453,611003,425109
1220.62191528162,0.156872590832496,619453,431654
1224.15835614142,0.156383442740851,627947,438066
1228.86696784128,0.155538407801926,638681,446422
1232.39344453127,0.155021921161434,646570,452474
1235.91565086277,0.154694528741424,653969,457997
1239.43358683578,0.154372081421583,661491,463609
1242.94725245029,0.153934012328988,668038,468670
1246.45664770632,0.153389590266445,674843,474038
1249.96177260386,0.152926192255541,680271,478361
1253.4626271429,0.152919825642432,685982,482384
1256.95921132345,0.152556200373185,691664,486787
1261.61468078432,0.152546545867802,701299,493579
1265.10130079506,0.152072442358051,708005,498843
1268.58365044731,0.151859895469928,714631,503758
1272.06172974107,0.151853860929255,721365,508512
1275.53553867634,0.151375908394831,726703,512839
1279.00507725312,0.151385900031504,732344,516808
1282.4703454714,0.151146414075929,737383,520651
1285.9313433312,0.151113249388293,742085,524011
1289.38807083251,0.15055627787299,746210,527600
1292.84052797532,0.150393590232838,749622,530211
1297.43716138587,0.150434722160133,754598,533680
1300.87965435887,0.150080063364298,757490,536163
1304.31787697338,0.150154320639981,760423,538147
1307.7518292294,0.150075909498297,762549,539749
1311.18151112693,0.150180727010984,764621,541085
1314.60692266597,0.15044069661342,766613,542170
1318.02806384652,0.150397992132195,767721,543007
1321.44493466858,0.150332826579406,768331,543520
1324.85753513215,0.150941198470895,769258,543414
1329.4010263037,0.151533922990286,770147,543300
1332.80366259745,0.151980490225787,769780,542483
1336.20202853272,0.152870922434588,769692,541310
1339.59612410949,0.153513855132804,769320,540248
1342.98594932777,0.15429815089441,768147,538451
1346.37150418756,0.155562899581672,766746,535906
1349.75278868886,0.156370341458673,764489,533336
1353.12980283167,0.157328176943454,762008,530434
1356.50254661599,0.158362812315027,759494,527426
1359.87102004182,0.15944579056799,756752,524213
1364.35567516305,0.160570343408269,753686,520739
1367.71418441907,0.161484637798388,751879,518398
1371.06842331659,0.162267621702078,748560,515180
1374.41839185563,0.163283614945948,744090,510907
1377.76409003617,0.16418268760107,738294,505879
1381.10551785823,0.165084911261967,731837,500414
1384.44267532179,0.166458743649805,725739,494677
1387.77556242686,0.168216014491163,720210,488926
1391.10417917344,0.17074194579467,715299,482776
1395.53569205567,0.174601607295086,709413,474567
1398.85434463244,0.17805945284656,705490,468200
1402.16872685072,0.182243443849189,701831,461306
1405.47883871051,0.186917088655772,698924,454478
1408.7846802118,0.192346889584453,696116,447028
1412.08625135461,0.197726899525106,693577,439914
1415.38355213892,0.203113948430571,690766,432730
1418.67658256475,0.20873978539619,689266,426233
1421.96534263208,0.213591875686225,687401,420357
1425.24983234092,0.218154894414521,686164,415215
1429.62250917284,0.223397332924603,684105,409002
1432.89703471187,0.226730710574827,683325,405412
1436.16728989241,0.229489003162761,681825,401961
1439.43327471445,0.231533872775534,681222,399719
1442.69498917801,0.233275387334567,680063,397442
1445.95243328308,0.234378071636511,679217,395941
1449.20560702965,0.235054062271839,678081,394664
1452.45451041774,0.235617840980577,676137,393022
1455.69914344733,0.235857657327989,673839,391470
1460.01867804025,0.235982698176428,671242,389849
1463.25334690003,0.235968981563454,668893,388497
1466.48374540132,0.235534996693163,665724,387043
1469.70987354412,0.234700109693555,662624,385982
1472.93173132843,0.234122061501493,659483,384664
1476.14931875425,0.233099358389185,655970,383517
1479.36263582158,0.232181803720979,652435,382257
1482.57168253042,0.2311104243018,648420,380843
1485.77645888076,0.230097643701154,644608,379488
1488.97696487262,0.229368824034718,640373,377628
1493.23766341522,0.227869582438437,633845,375071
1496.42820523726,0.227004228051043,629141,373030
1499.61447670082,0.226255298309735,624161,370716
1502.79647780588,0.225184008301793,618799,368439
1505.97420855245,0.223493522758457,612952,366381
1509.14766894053,0.22219291925767,607196,364029
1512.31685897012,0.22111225717131,601356,361426
1515.48177864122,0.220193959196366,594620,358134
1518.64242795382,0.219119365818849,588581,355375
1522.84998425743,0.217587569158222,579478,351115
1526.00066940022,0.216634673022095,572408,347593
1529.14708418453,0.216129105409501,565610,343865
1532.28922861034,0.215598299216547,557960,339629
1535.42710267766,0.214739728173284,549852,335356
1538.5607063865,0.21436202718337,541994,330851
1541.69003973684,0.213982217561826,533690,326067
1544.81510272869,0.213439731479086,524999,321158
1547.93589536205,0.213380094451255,516560,316039
1551.05241763692,0.212505097101749,507932,311387
1555.2011378902,0.212010385906953,496271,304585
1558.30769599526,0.211776032727856,487392,299297
1561.40998374183,0.211481043539489,478799,294220
1564.5080011299,0.21111787546422,469516,288757
1567.60174815948,0.210899741661324,460059,283083
1570.69122483058,0.210597877593951,450544,277421
1573.77643114318,0.210026451839166,441010,271908
1576.85736709729,0.209557605571557,431552,266364
1579.93403269291,0.209324164147461,421708,260428
1584.0296107072,0.208611583024499,409039,253019
1587.09631213301,0.208390175190285,399538,247268
1590.15874320033,0.20787807275105,390344,241863
1593.21690390916,0.206921183536786,380760,236445
1596.27079425949,0.205690113826207,371422,231301
1599.32041425134,0.205347368351093,362487,225915
1602.36576388469,0.204050671363234,353366,220889
1605.40684315956,0.203816006336223,344199,215275
1608.44365207593,0.202848366337721,334823,209878
1611.47619063381,0.202237337650342,326124,204713
1615.51293259778,0.201808799916825,314100,197360
1618.53550698585,0.200981569209849,305544,192350
1621.55381101543,0.20102512785436,296772,186809
1624.56784468652,0.199906407420445,287753,181599
1627.57760799912,0.200395895155572,279497,176190
1630.58310095323,0.199706127999828,270854,171013
1633.58432354884,0.199729024581993,262236,165563
1636.58127578597,0.199228128003231,254017,160559
1639.5739576646,0.199935593266656,245603,154988
1643.55755738958,0.200086982496269,234673,148039
1646.5402750984,0.201917139350134,226622,142359
1649.51872244873,0.203278079336303,218817,137026
1652.49289944057,0.203927287205559,210457,131594
1655.46280607392,0.206356037962787,203136,126308
1658.42844234878,0.207398299588927,195075,121005
1661.38980826515,0.209408563106044,187482,115758
1664.34690382303,0.210184802440206,179150,110416
1667.29972902242,0.212058905127657,170454,104604
1670.24828386331,0.213617868910922,161222,98584
1674.17304753796,0.21889472143152,146909,88747
1677.11163820905,0.220037700311816,134249,80886
1680.04595852164,0.223326419592314,120608,72119
1682.97600847574,0.225706373433886,106749,63483
1685.90178807136,0.230474595729137,93038,54725
1688.82329730848,0.234015594325026,79827,46573
1691.74053618711,0.233212558553444,68056,39779
1694.65350470725,0.233867287429254,57741,33699
1697.56220286889,0.23663304078209,48831,28318
1701.43382430455,0.232788792348698,39101,22877
