***Scan Config Information***,,,,,,,***Reference Scan Information***,,,,,,,,
Scan Config Name:,herbario,,,,,,Scan Config Name:,Local New Reference,,,,,,,
Scan Config Type:,Slew,Num Section:,1,,,,Scan Config Type:,Slew,Num Section:,1,,,,,
Section Config Type:,Column,,,,,,Section Config Type:,Column,,,,,,,
Start Wavelength (nm):,900,,,,,,Start Wavelength (nm):,900,,,,,,,
End Wavelength (nm):,1700,,,,,,End Wavelength (nm):,1700,,,,,,,
Pattern Width (nm):,7.03,,,,,,Pattern Width (nm):,7.03,,,,,,,
Exposure (ms):,0.635,,,,,,Exposure (ms):,0.635,,,,,,,
Digital Resolution:,228,,,,,,Digital Resolution:,228,,,,,,,
Num Repeats:,20,,,,,,Num Repeats:,20,,,,,,,
PGA Gain:,64,(FixedPGA),,,,,PGA Gain:,64,(AutoPGA),,,,,,
System Temp (C):,42.13,,,,,,System Temp (C):,42.08,,,,,,,
Humidity (%):,22,,,,,,Humidity (%):,22.05,,,,,,,
Lamp Indicator:,1127,,,,,,Lamp Indicator:,1133,,,,,,,
Data Date-Time:,2023/11/10T15:13:56,,,,,,Data Date-Time:,2023/11/10T15:11:53,,,,,,,
Total Measurement Time in sec:,6.750135,,,,,,,,,,,,,,
,,,,,,,,,,,,,,,
***General Information***,,,,,,,***Calibration Coefficients***,,,,,,,,
Model Name:,NIR-S-G1,,,,,,Shift Vector Coefficients:,-5.08535400046452,0.0413457073195706,-8.39863846568903E-05,,,,,
Serial Number:,B07R011,(95UB122GC0AB07R011),,,,,Pixel to Wavelength Coefficients:,1794.37724621797,-0.920219689099738,-0.000237242138379873,,,,,
GUI Version:,3.9.4,Revision:,526,,,,Versions (Cal/Ref/Cfg):,1,3,1,,,,,
TIVA Version:,2.4.7,,,,,,***Lamp Usage ***,,,,,,,,
DLPC Version:,2.3.1,,,,,,Total Time(hh:mm:ss):,1hr 8min 46sec ,,,,,,,
UUID:,DE:67:0C:88:67:2B:47:21,,,,,,***Device/Error/Activation Status***,,,,,,,,
Main Board Version:,D,,,,,,Device Status:,0x00000001,Activation Status:,Activated,,,,,
Detector Board Version:,B,,,,,,Error status:,0x00000000,Error Code:,0x00000000000000000000000000000000,,,,,
,,,,,,,,,Error Details:,Not found,,,,,
***Scan Data***,,,,,,,,,,,,,,,
Wavelength (nm),Absorbance (AU),Reference Signal (unitless),Sample Signal (unitless)
901.81429527209,0.236126774240459,87307,50690
905.716563509274,0.230755673790149,94466,55529
909.614561387966,0.230925344602193,102517,60238
913.508288908168,0.227793247655727,111516,66000
917.397746069878,0.226194032368803,122311,72656
921.282932873098,0.22682399127782,136107,80734
925.163849317827,0.223611256321183,152342,91035
929.040495404065,0.22187674554524,170646,102381
932.912871131812,0.220222283417772,190027,114444
938.069395988934,0.217657431765778,214452,129919
941.931807546869,0.216660836888304,230724,140098
945.789948746314,0.215315710616703,244734,149066
949.643819587268,0.214815755197279,257852,157237
953.493420069731,0.213323259874523,269463,164883
957.338750193702,0.211885559957836,280815,172399
961.179809959184,0.211393841906346,291766,179325
965.016599366174,0.210836122511782,302238,186000
968.849118414673,0.209980107400491,312442,192659
973.952501032798,0.208711050012177,325477,201284
977.775055911486,0.208392093751655,335408,207578
981.593340431682,0.2072573845384,343785,213319
985.407354593388,0.206904435142951,351905,218535
989.217098396603,0.205787632749373,359448,223794
993.022571841327,0.205261011858684,365872,228070
996.823774927561,0.204846242264258,371302,231676
1000.6207076553,0.203630140330889,376770,235747
1004.41337002455,0.202782264051317,381334,239069
1008.20176203532,0.202378886116445,385007,241596
1013.24630860312,0.201669706721148,388447,244153
1017.02473644407,0.200687256380471,390979,246301
1020.79889392653,0.200264122542197,392533,247521
1024.5687810505,0.198734924798154,393500,249006
1028.33439781597,0.19892362557906,394237,249364
1032.09574422296,0.197371433553715,394190,250227
1035.85282027145,0.19749363958026,394583,250406
1039.60562596146,0.196602717073336,394861,251097
1043.35416129297,0.195815499574468,394452,251292
1048.34556562178,0.195040957048465,394144,251544
1052.08413678348,0.194803658085609,393924,251541
1055.81843758669,0.193968096663986,393642,251845
1059.54846803141,0.193530452710151,393372,251926
1063.27422811764,0.192782144503091,393337,252338
1066.99571784538,0.192629997252273,393327,252420
1070.71293721462,0.192044380896198,394059,253231
1074.42588622538,0.191636354569641,394956,254046
1078.13456487764,0.19117995475743,396279,255165
1081.83897317142,0.190443492482889,397851,256612
1086.77154144991,0.190100888580048,400301,258396
1090.46598557387,0.190084277617297,402724,259970
1094.15615933934,0.189031482343645,405107,262143
1097.84206274632,0.189071934878904,407429,263621
1101.52369579481,0.188971141005839,410570,265715
1105.20105848481,0.188199238940045,413663,268193
1108.87415081632,0.18763432831812,417118,270785
1112.54297278934,0.188012850424993,420687,272864
1116.20752440387,0.187455948805561,424527,275708
1121.08695044336,0.187040576882926,430019,279542
1124.74153788807,0.18723987663212,434364,282237
1128.3918549743,0.187503196754319,439141,285168
1132.03790170203,0.187693119750461,443958,288170
1135.67967807127,0.187770366079873,448749,291228
1139.31718408202,0.187820036999567,453667,294386
1142.95041973428,0.188162939392499,459047,297642
1146.57938502805,0.188349894504328,464449,301015
1150.20407996333,0.188903218208058,469767,304074
1153.82450454012,0.18898153926576,475657,307831
1158.6450945293,0.189193203182536,483767,312927
1162.25555493627,0.189753589919351,489441,316189
1165.86174498476,0.190422180505875,496108,320003
1169.46366467475,0.191075071550225,503065,324003
1173.06131400625,0.191388310023756,509901,328169
1176.65469297927,0.191869852123117,517202,332499
1180.24380159379,0.192129082719955,524191,336791
1183.82863984982,0.192835783786924,532258,341418
1187.40920774736,0.193074293940133,540415,346460
1192.17665549754,0.193559969594594,550831,352743
1195.74725922527,0.193450080710633,559072,358111
1199.3135925945,0.193688659308649,567508,363315
1202.87565560525,0.193741295018405,576044,368735
1206.43344825751,0.193777117773016,584486,374108
1209.98697055127,0.193158227439872,593562,380459
1213.53622248654,0.192722578481452,602086,386310
1217.08120406333,0.191896111606389,610866,392690
1220.62191528162,0.19087821377991,619311,399053
1224.15835614142,0.190109349519778,627407,404986
1228.86696784128,0.189072627287729,638320,413015
1232.39344453127,0.188544801578428,646223,418637
1235.91565086277,0.188212825607834,653696,423802
1239.43358683578,0.187816289945524,660874,428847
1242.94725245029,0.186936245966785,667375,433944
1246.45664770632,0.186890884099323,674276,438477
1249.96177260386,0.186661677941519,679816,442313
1253.4626271429,0.186366896782751,685311,446191
1256.95921132345,0.185885403269792,690667,450177
1261.61468078432,0.18583776708742,700133,456397
1265.10130079506,0.18564730205228,707292,461266
1268.58365044731,0.185666016746252,714019,465633
1272.06172974107,0.185484528162534,720419,470003
1275.53553867634,0.185723095130028,726589,473768
1279.00507725312,0.185267863834511,731458,477443
1282.4703454714,0.18480650091389,736552,481279
1285.9313433312,0.184906146970209,741523,484416
1289.38807083251,0.184756624789662,745153,486955
1292.84052797532,0.184508563435025,748843,489646
1297.43716138587,0.184417231481832,753713,492934
1300.87965435887,0.184201698402445,756634,495090
1304.31787697338,0.184514705427411,759469,496587
1307.7518292294,0.184358764941851,761962,498396
1311.18151112693,0.18452810584305,763784,499393
1314.60692266597,0.184501364711677,765433,500502
1318.02806384652,0.184477744389372,766653,501327
1321.44493466858,0.184806448901797,767587,501558
1324.85753513215,0.184979608801755,768406,501893
1329.4010263037,0.185872417263798,768964,501226
1332.80366259745,0.186196837016565,768685,500670
1336.20202853272,0.186795326583685,768306,499734
1339.59612410949,0.187635679924586,768132,498655
1342.98594932777,0.188433121978078,767198,497135
1346.37150418756,0.189300527117781,764982,494710
1349.75278868886,0.19052650907069,763488,492352
1353.12980283167,0.191343614234544,760599,489567
1356.50254661599,0.192345333167948,758112,486842
1359.87102004182,0.193338874785768,755127,483817
1364.35567516305,0.194491467257957,752295,480725
1367.71418441907,0.19575888676933,750515,478190
1371.06842331659,0.1965005928608,747281,475317
1374.41839185563,0.197611941344637,742448,471036
1377.76409003617,0.198925394672251,736354,465759
1381.10551785823,0.200699500244248,730361,460085
1384.44267532179,0.202626620814262,724573,454418
1387.77556242686,0.20470132592028,718997,448772
1391.10417917344,0.206938112021541,713701,443178
1395.53569205567,0.211018460917154,708085,435579
1398.85434463244,0.215007060604017,704210,429235
1402.16872685072,0.219236369749733,700550,422866
1405.47883871051,0.224509531139718,697725,416078
1408.7846802118,0.229743539058608,694915,409438
1412.08625135461,0.235498032100729,692224,402484
1415.38355213892,0.241150757214276,689880,395934
1418.67658256475,0.246278245531729,687805,390110
1421.96534263208,0.251139018322267,686448,385007
1425.24983234092,0.255165608681435,684897,380592
1429.62250917284,0.259959111546165,683015,375380
1432.89703471187,0.262735234141295,682101,372489
1436.16728989241,0.265050039385069,681015,369919
1439.43327471445,0.266750418509883,680114,367986
1442.69498917801,0.267884467148236,679109,366484
1445.95243328308,0.268871834623596,678400,365270
1449.20560702965,0.269115225940157,677145,364390
1452.45451041774,0.269532553029041,675084,362932
1455.69914344733,0.269492669131732,673004,361847
1460.01867804025,0.269287615840891,670132,360473
1463.25334690003,0.269335708573515,667739,359146
1466.48374540132,0.268595687534899,664657,358098
1469.70987354412,0.267684824530501,661190,356978
1472.93173132843,0.267212401379617,658312,355811
1476.14931875425,0.26632241677758,654985,354739
1479.36263582158,0.265898075226145,651311,353094
1482.57168253042,0.264184761657457,647161,352231
1485.77645888076,0.263738244789172,643317,350499
1488.97696487262,0.263398576106052,639456,348668
1493.23766341522,0.262029303740847,632931,346200
1496.42820523726,0.26076097313326,627959,344485
1499.61447670082,0.260087365905764,622998,342294
1502.79647780588,0.258792458572902,617425,340245
1505.97420855245,0.257833558948955,612107,338060
1509.14766894053,0.256743681965704,606249,335666
1512.31685897012,0.255529088339695,600037,333157
1515.48177864122,0.254720998244312,593532,330159
1518.64242795382,0.253285566746825,587189,327712
1522.84998425743,0.252300093772341,578330,323501
1526.00066940022,0.251139438606916,571837,320725
1529.14708418453,0.25038800941813,564416,317111
1532.28922861034,0.24952060730639,556737,313422
1535.42710267766,0.249010616273349,548992,309425
1538.5607063865,0.248194396215208,540998,305493
1541.69003973684,0.247653645503056,532799,301238
1544.81510272869,0.247068635475916,524257,296808
1547.93589536205,0.246269700400701,515476,292374
1551.05241763692,0.245744936667579,506924,287871
1555.2011378902,0.244488834238251,494830,281817
1558.30769599526,0.244387639343676,486508,277142
1561.40998374183,0.244143521304455,477636,272241
1564.5080011299,0.243923500517939,468393,267108
1567.60174815948,0.243406232441017,459043,262088
1570.69122483058,0.242610913865984,449696,257222
1573.77643114318,0.242349995091075,440066,251865
1576.85736709729,0.242046978088579,430376,246491
1579.93403269291,0.241435126044503,420939,241426
1584.0296107072,0.240512867712473,408008,234507
1587.09631213301,0.240120296795826,398569,229289
1590.15874320033,0.239530789961849,389439,224341
1593.21690390916,0.238603182334718,379507,219087
1596.27079425949,0.237939259388427,370864,214425
1599.32041425134,0.237219494055182,361751,209503
1602.36576388469,0.236838844685222,352727,204456
1605.40684315956,0.235235088575929,343283,199718
1608.44365207593,0.235524704350043,334200,194304
1611.47619063381,0.23446725912962,325335,189611
1615.51293259778,0.233702180913661,313309,182924
1618.53550698585,0.233519691820482,304665,177952
1621.55381101543,0.232943518501315,296025,173135
1624.56784468652,0.232528877881189,287118,168086
1627.57760799912,0.23288248622224,278946,163169
1630.58310095323,0.232447417419138,269955,158068
1633.58432354884,0.23292209582893,261794,153122
1636.58127578597,0.232185542838258,253412,148471
1639.5739576646,0.23322252218538,245205,143320
1643.55755738958,0.23287416499363,234235,137018
1646.5402750984,0.233957291490027,226131,131948
1649.51872244873,0.234716523636303,218226,127113
1652.49289944057,0.234944146159735,210056,122290
1655.46280607392,0.237119000984207,202479,117290
1658.42844234878,0.238960948144414,194973,112464
1661.38980826515,0.238753994602425,187124,107988
1664.34690382303,0.239961096436345,179252,103158
1667.29972902242,0.242031838323846,170829,97843
1670.24828386331,0.241851047440298,161496,92536
1674.17304753796,0.24441090531029,147174,83834
1677.11163820905,0.245641616272065,135143,76763
1680.04595852164,0.246467960646264,121972,69150
1682.97600847574,0.24718876455675,108102,61185
1685.90178807136,0.249973845936458,94645,53226
1688.82329730848,0.252327388144574,81300,45474
1691.74053618711,0.256322565081584,69650,38601
1694.65350470725,0.254658835516022,59122,32892
1697.56220286889,0.252840198233725,49748,27793
1701.43382430455,0.261190294578607,40240,22053
