***Scan Config Information***,,,,,,,***Reference Scan Information***,,,,,,,,
Scan Config Name:,herbario,,,,,,Scan Config Name:,Local New Reference,,,,,,,
Scan Config Type:,Slew,Num Section:,1,,,,Scan Config Type:,Slew,Num Section:,1,,,,,
Section Config Type:,Column,,,,,,Section Config Type:,Column,,,,,,,
Start Wavelength (nm):,900,,,,,,Start Wavelength (nm):,900,,,,,,,
End Wavelength (nm):,1700,,,,,,End Wavelength (nm):,1700,,,,,,,
Pattern Width (nm):,7.03,,,,,,Pattern Width (nm):,7.03,,,,,,,
Exposure (ms):,0.635,,,,,,Exposure (ms):,0.635,,,,,,,
Digital Resolution:,228,,,,,,Digital Resolution:,228,,,,,,,
Num Repeats:,20,,,,,,Num Repeats:,20,,,,,,,
PGA Gain:,64,(FixedPGA),,,,,PGA Gain:,64,(AutoPGA),,,,,,
System Temp (C):,37.07,,,,,,System Temp (C):,36.63,,,,,,,
Humidity (%):,45.47,,,,,,Humidity (%):,46.66,,,,,,,
Lamp Indicator:,1087,,,,,,Lamp Indicator:,1087,,,,,,,
Data Date-Time:,2023/11/10T11:52:20,,,,,,Data Date-Time:,2023/11/10T11:50:00,,,,,,,
Total Measurement Time in sec:,6.7826712,,,,,,,,,,,,,,
,,,,,,,,,,,,,,,
***General Information***,,,,,,,***Calibration Coefficients***,,,,,,,,
Model Name:,NIR-S-G1,,,,,,Shift Vector Coefficients:,-5.08535400046452,0.0413457073195706,-8.39863846568903E-05,,,,,
Serial Number:,B07R011,(95UB122GC0AB07R011),,,,,Pixel to Wavelength Coefficients:,1794.37724621797,-0.920219689099738,-0.000237242138379873,,,,,
GUI Version:,3.9.4,Revision:,526,,,,Versions (Cal/Ref/Cfg):,1,3,1,,,,,
TIVA Version:,2.4.7,,,,,,***Lamp Usage ***,,,,,,,,
DLPC Version:,2.3.1,,,,,,Total Time(hh:mm:ss):,49min 29sec ,,,,,,,
UUID:,DE:67:0C:88:67:2B:47:21,,,,,,***Device/Error/Activation Status***,,,,,,,,
Main Board Version:,D,,,,,,Device Status:,0x00000001,Activation Status:,Activated,,,,,
Detector Board Version:,B,,,,,,Error status:,0x00000000,Error Code:,0x00000000000000000000000000000000,,,,,
,,,,,,,,,Error Details:,Not found,,,,,
***Scan Data***,,,,,,,,,,,,,,,
Wavelength (nm),Absorbance (AU),Reference Signal (unitless),Sample Signal (unitless)
901.81429527209,0.158620682778532,88032,61097
905.716563509274,0.158914879743707,95507,66240
909.614561387966,0.156712745298915,103208,71945
913.508288908168,0.157417799919456,112803,78506
917.397746069878,0.15666665593177,124076,86501
921.282932873098,0.157631561237237,138538,96369
925.163849317827,0.158269802345657,156103,108428
929.040495404065,0.157658659415166,175246,121896
932.912871131812,0.156375135871588,194857,135938
938.069395988934,0.15661021625563,218852,152595
941.931807546869,0.156042120961491,234565,163765
945.789948746314,0.155675607568027,248342,173530
949.643819587268,0.15623807221263,260900,182069
953.493420069731,0.156290937180196,272460,190113
957.338750193702,0.156104038703541,283899,198180
961.179809959184,0.156564171125965,294647,205465
965.016599366174,0.156611631288679,304918,212604
968.849118414673,0.156732437026206,315233,219735
973.952501032798,0.157339718236676,328391,228587
977.775055911486,0.157625255230944,338483,235457
981.593340431682,0.15705412694457,346935,241654
985.407354593388,0.157797708875906,355212,246996
989.217098396603,0.157835955654267,362797,252248
993.022571841327,0.157768652960906,369071,256650
996.823774927561,0.157227520505216,374444,260711
1000.6207076553,0.157274035720919,380313,264769
1004.41337002455,0.157113147877546,384843,268022
1008.20176203532,0.156691829227563,388122,270568
1013.24630860312,0.156415078193015,391602,273168
1017.02473644407,0.156422903790487,393963,274810
1020.79889392653,0.156054063267324,395684,276245
1024.5687810505,0.155639475062044,396809,277295
1028.33439781597,0.155551119462643,397498,277833
1032.09574422296,0.155328749917758,397489,277969
1035.85282027145,0.155523377089507,397846,278094
1039.60562596146,0.155097889724425,397808,278340
1043.35416129297,0.155355545790707,397831,278191
1048.34556562178,0.15460511826988,397187,278221
1052.08413678348,0.155132440116724,397155,277861
1055.81843758669,0.154790035347242,396842,277861
1059.54846803141,0.15455752358968,396661,277883
1063.27422811764,0.154568790536477,396864,278018
1066.99571784538,0.15482567571482,396856,277848
1070.71293721462,0.154319148716089,397442,278583
1074.42588622538,0.154133873152585,398352,279340
1078.13456487764,0.153965851350805,399813,280473
1081.83897317142,0.154746068817439,401493,281146
1086.77154144991,0.154041501928207,403524,283027
1090.46598557387,0.154797941909705,406137,284364
1094.15615933934,0.154087753310737,408579,286542
1097.84206274632,0.154588563879803,411029,287928
1101.52369579481,0.153848060209529,413759,290335
1105.20105848481,0.154664618785551,417349,292304
1108.87415081632,0.155080553683613,421126,294667
1112.54297278934,0.154966144616198,424377,297020
1116.20752440387,0.155292652567214,428318,299553
1121.08695044336,0.155378305017124,433827,303346
1124.74153788807,0.155893234909975,438116,305982
1128.3918549743,0.156310090211722,443123,309182
1132.03790170203,0.156964698252576,447743,311935
1135.67967807127,0.156899455845596,452495,315293
1139.31718408202,0.156722588205148,457491,318904
1142.95041973428,0.157552947007059,462690,321912
1146.57938502805,0.158154423796103,468104,325228
1150.20407996333,0.158478354137758,473558,328772
1153.82450454012,0.1589178201433,479453,332528
1158.6450945293,0.159935339846366,487626,337405
1162.25555493627,0.160441389002105,493496,341069
1165.86174498476,0.160608116909886,500105,345504
1169.46366467475,0.161426113137165,507114,349687
1173.06131400625,0.16133463062957,514029,354530
1176.65469297927,0.161573583887065,521281,359334
1180.24380159379,0.162490131369081,528568,363589
1183.82863984982,0.162332849611457,536753,369353
1187.40920774736,0.162387668449657,544643,374735
1192.17665549754,0.163196363850067,555401,381426
1195.74725922527,0.16304115168187,563514,387136
1199.3135925945,0.163450336989621,572296,392799
1202.87565560525,0.163376960929198,580928,398791
1206.43344825751,0.163617703970651,589405,404386
1209.98697055127,0.16348175406441,598556,410793
1213.53622248654,0.163346506181849,607373,416974
1217.08120406333,0.163720001535532,616048,422566
1220.62191528162,0.162740006852182,624411,429270
1224.15835614142,0.162667492683816,633059,435288
1228.86696784128,0.162619382160224,643824,442739
1232.39344453127,0.162333415266612,651842,448548
1235.91565086277,0.162191947018142,659569,454013
1239.43358683578,0.162017492064505,666594,459033
1242.94725245029,0.161782146256338,673558,464080
1246.45664770632,0.161773828072374,680291,468728
1249.96177260386,0.161415556322792,685899,472982
1253.4626271429,0.161501471530744,691558,476790
1256.95921132345,0.161087646060066,697481,481332
1261.61468078432,0.161358480897078,706990,487590
1265.10130079506,0.161148900189783,714288,492861
1268.58365044731,0.160991818742432,720946,497635
1272.06172974107,0.161034763612075,727588,502170
1275.53553867634,0.160887001494752,733108,506152
1279.00507725312,0.160770655341911,738527,510030
1282.4703454714,0.160730908392007,743679,513635
1285.9313433312,0.160691148426227,748720,517164
1289.38807083251,0.160759174343832,752783,519889
1292.84052797532,0.16079775567441,756334,522295
1297.43716138587,0.160706556829937,760992,525622
1300.87965435887,0.160752978767195,764282,527838
1304.31787697338,0.160987665604634,767171,529547
1307.7518292294,0.160980649002592,769294,531021
1311.18151112693,0.161268366876684,771426,532140
1314.60692266597,0.16149974521997,773318,533161
1318.02806384652,0.161690777158972,774288,533595
1321.44493466858,0.16199363175235,775393,533984
1324.85753513215,0.162660003538895,776143,533681
1329.4010263037,0.163144261406839,776527,533350
1332.80366259745,0.164210454689552,776839,532256
1336.20202853272,0.164729344925882,776229,531203
1339.59612410949,0.166015519004973,776006,529480
1342.98594932777,0.167012045749973,774814,527455
1346.37150418756,0.168211473739161,772660,524538
1349.75278868886,0.169041185183303,770017,521746
1353.12980283167,0.17035693699508,767042,518158
1356.50254661599,0.171440748846164,764091,514878
1359.87102004182,0.172783173445087,760636,510968
1364.35567516305,0.174271125430787,758011,507463
1367.71418441907,0.175308000317632,756448,505209
1371.06842331659,0.17587625536253,753251,502416
1374.41839185563,0.177388224630049,748679,497631
1377.76409003617,0.178891586893557,742386,491743
1381.10551785823,0.180486545654931,735738,485553
1384.44267532179,0.182927002786189,730406,479333
1387.77556242686,0.185620002303868,724917,472790
1391.10417917344,0.188900018693793,719654,465826
1395.53569205567,0.194570378843148,713718,455991
1398.85434463244,0.200072018619955,710161,448007
1402.16872685072,0.206273488375259,706702,439504
1405.47883871051,0.213344573915645,704002,430754
1408.7846802118,0.220168327957716,701092,422286
1412.08625135461,0.227554313498186,698738,413771
1415.38355213892,0.234915413206397,696155,405313
1418.67658256475,0.241630979828513,694575,398188
1421.96534263208,0.247611044834699,693090,391903
1425.24983234092,0.252535781655296,691362,386518
1429.62250917284,0.258562304785036,689386,380102
1432.89703471187,0.262534291241045,689235,376559
1436.16728989241,0.265544507410518,687309,372913
1439.43327471445,0.267942877468027,686645,370501
1442.69498917801,0.270097627493524,685607,368110
1445.95243328308,0.271565434305822,685052,366571
1449.20560702965,0.272063533058443,683593,365371
1452.45451041774,0.272278514863704,681513,364079
1455.69914344733,0.272841748480914,679466,362515
1460.01867804025,0.272444435665176,676547,361288
1463.25334690003,0.272029330782504,674129,360341
1466.48374540132,0.270987844353307,671234,359655
1469.70987354412,0.269614135758894,667797,358947
1472.93173132843,0.268645046622545,664675,358067
1476.14931875425,0.266734242521354,661404,357876
1479.36263582158,0.264552332357692,657398,357500
1482.57168253042,0.263073507856941,653754,356731
1485.77645888076,0.261373357091362,649628,355870
1488.97696487262,0.259275415793786,645362,355245
1493.23766341522,0.256664222640301,638866,353790
1496.42820523726,0.255340858232551,634148,352249
1499.61447670082,0.253849029895858,629171,350687
1502.79647780588,0.252000139974013,623797,349175
1505.97420855245,0.250328876808896,617881,347197
1509.14766894053,0.248745403872676,612070,345188
1512.31685897012,0.247045140207568,606093,343158
1515.48177864122,0.245472545264178,599200,340486
1518.64242795382,0.243961538600235,592824,338037
1522.84998425743,0.242668388808263,583945,333967
1526.00066940022,0.241530101403812,577380,331079
1529.14708418453,0.240483240007714,570127,327709
1532.28922861034,0.239851512008439,562141,323589
1535.42710267766,0.238929824241243,554400,319811
1538.5607063865,0.238344081780835,546155,315480
1541.69003973684,0.237107695307368,537756,311514
1544.81510272869,0.236658828060165,529073,306801
1547.93589536205,0.236163784544129,520464,302153
1551.05241763692,0.235372725125913,511618,297559
1555.2011378902,0.23460161451676,499834,291222
1558.30769599526,0.234099372332161,491240,286546
1561.40998374183,0.233710013370801,482407,281646
1564.5080011299,0.232930975651058,472833,276552
1567.60174815948,0.23246816639946,463385,271315
1570.69122483058,0.231589200730308,453636,266145
1573.77643114318,0.231766175822345,444214,260511
1576.85736709729,0.231181967786571,434515,255166
1579.93403269291,0.230250990207152,424475,249805
1584.0296107072,0.229826056738849,411851,242613
1587.09631213301,0.229238997691781,402425,237381
1590.15874320033,0.228204039129197,393060,232410
1593.21690390916,0.227298193307111,382643,226723
1596.27079425949,0.226737173268811,374136,221969
1599.32041425134,0.226020486556327,365001,216907
1602.36576388469,0.225002811833392,355620,211828
1605.40684315956,0.223956775953791,346265,206753
1608.44365207593,0.223484528524143,336930,201398
1611.47619063381,0.22290046315354,327858,196239
1615.51293259778,0.222207864896496,316173,189547
1618.53550698585,0.220982484857381,306849,184477
1621.55381101543,0.220958586995531,298278,179334
1624.56784468652,0.220519470320652,289461,174209
1627.57760799912,0.220637133941979,280985,169062
1630.58310095323,0.219948037536088,271841,163820
1633.58432354884,0.220879079141479,263506,158457
1636.58127578597,0.220126728638892,254889,153541
1639.5739576646,0.220346934757342,246629,148490
1643.55755738958,0.222291935200981,235632,141235
1646.5402750984,0.222889802508482,227351,136084
1649.51872244873,0.224389232920839,219056,130667
1652.49289944057,0.226229375644064,210740,125175
1655.46280607392,0.228236579387832,202796,119901
1658.42844234878,0.229178788292758,194546,114774
1661.38980826515,0.229651753603008,186204,109733
1664.34690382303,0.229243219943105,176793,104285
1667.29972902242,0.229959705753908,166623,98124
1670.24828386331,0.228819403293523,155567,91854
1674.17304753796,0.228042103963185,137999,81627
1677.11163820905,0.225758543604818,123258,73292
1680.04595852164,0.226604115994613,108296,64270
1682.97600847574,0.224770081236556,93824,55917
1685.90178807136,0.222521314259377,79917,47876
1688.82329730848,0.221625240338672,67990,40815
1691.74053618711,0.222766030165067,57665,34526
1694.65350470725,0.220811214431327,48637,29252
1697.56220286889,0.224428002716443,41432,24712
1701.43382430455,0.23120462419557,33361,19590
