***Scan Config Information***,,,,,,,***Reference Scan Information***,,,,,,,,
Scan Config Name:,herbario,,,,,,Scan Config Name:,Local New Reference,,,,,,,
Scan Config Type:,Slew,Num Section:,1,,,,Scan Config Type:,Slew,Num Section:,1,,,,,
Section Config Type:,Column,,,,,,Section Config Type:,Column,,,,,,,
Start Wavelength (nm):,900,,,,,,Start Wavelength (nm):,900,,,,,,,
End Wavelength (nm):,1700,,,,,,End Wavelength (nm):,1700,,,,,,,
Pattern Width (nm):,7.03,,,,,,Pattern Width (nm):,7.03,,,,,,,
Exposure (ms):,0.635,,,,,,Exposure (ms):,0.635,,,,,,,
Digital Resolution:,228,,,,,,Digital Resolution:,228,,,,,,,
Num Repeats:,20,,,,,,Num Repeats:,20,,,,,,,
PGA Gain:,64,(FixedPGA),,,,,PGA Gain:,64,(AutoPGA),,,,,,
System Temp (C):,41,,,,,,System Temp (C):,40.73,,,,,,,
Humidity (%):,20.06,,,,,,Humidity (%):,20.05,,,,,,,
Lamp Indicator:,1114,,,,,,Lamp Indicator:,1120,,,,,,,
Data Date-Time:,2023/11/13T13:58:52,,,,,,Data Date-Time:,2023/11/13T13:54:33,,,,,,,
Total Measurement Time in sec:,6.7852172,,,,,,,,,,,,,,
,,,,,,,,,,,,,,,
***General Information***,,,,,,,***Calibration Coefficients***,,,,,,,,
Model Name:,NIR-S-G1,,,,,,Shift Vector Coefficients:,-5.08535400046452,0.0413457073195706,-8.39863846568903E-05,,,,,
Serial Number:,B07R011,(95UB122GC0AB07R011),,,,,Pixel to Wavelength Coefficients:,1794.37724621797,-0.920219689099738,-0.000237242138379873,,,,,
GUI Version:,3.9.4,Revision:,526,,,,Versions (Cal/Ref/Cfg):,1,3,1,,,,,
TIVA Version:,2.4.7,,,,,,***Lamp Usage ***,,,,,,,,
DLPC Version:,2.3.1,,,,,,Total Time(hh:mm:ss):,2hr 7min 50sec ,,,,,,,
UUID:,DE:67:0C:88:67:2B:47:21,,,,,,***Device/Error/Activation Status***,,,,,,,,
Main Board Version:,D,,,,,,Device Status:,0x00000001,Activation Status:,Activated,,,,,
Detector Board Version:,B,,,,,,Error status:,0x00000000,Error Code:,0x00000000000000000000000000000000,,,,,
,,,,,,,,,Error Details:,Not found,,,,,
***Scan Data***,,,,,,,,,,,,,,,
Wavelength (nm),Absorbance (AU),Reference Signal (unitless),Sample Signal (unitless)
901.81429527209,0.275723750297535,86232,45703
905.716563509274,0.272695615280227,93566,49937
909.614561387966,0.271124862369786,101185,54199
913.508288908168,0.267751909442171,109998,59379
917.397746069878,0.268465465781558,120978,65199
921.282932873098,0.265259918466541,134140,72828
925.163849317827,0.26552025520791,150634,81734
929.040495404065,0.264676453544483,169304,92043
932.912871131812,0.262372592236591,188423,102982
938.069395988934,0.259932381696465,212417,116750
941.931807546869,0.258151218183852,228379,126039
945.789948746314,0.257322667696357,242571,134127
949.643819587268,0.257243980273819,255056,141056
953.493420069731,0.25531419822831,266674,148138
957.338750193702,0.254632088579559,277834,154580
961.179809959184,0.254214320497742,288908,160896
965.016599366174,0.253333076925938,298904,166801
968.849118414673,0.253095307641666,309087,172578
973.952501032798,0.251405234845212,321852,180406
977.775055911486,0.251827868081985,331780,185790
981.593340431682,0.251199724625036,340245,190806
985.407354593388,0.250066917070992,348022,195677
989.217098396603,0.250359057771811,355708,199864
993.022571841327,0.249059197743937,361803,203898
996.823774927561,0.24912902986547,367377,207006
1000.6207076553,0.247950067290701,372712,210583
1004.41337002455,0.24742570539954,377235,213396
1008.20176203532,0.246393034699952,380748,215896
1013.24630860312,0.245607867812916,384338,218326
1017.02473644407,0.24510857238891,386337,219714
1020.79889392653,0.244772065573086,388480,221104
1024.5687810505,0.243913711030937,389598,222179
1028.33439781597,0.243825852860261,390103,222512
1032.09574422296,0.243438107049893,390445,222906
1035.85282027145,0.242083069597515,390444,223602
1039.60562596146,0.241647381376111,390520,223870
1043.35416129297,0.241190941533772,390352,224009
1048.34556562178,0.240876855162479,390129,224043
1052.08413678348,0.241090047633528,390000,223859
1055.81843758669,0.240495213955709,389628,223952
1059.54846803141,0.239634690405002,389428,224281
1063.27422811764,0.239017188199789,389674,224742
1066.99571784538,0.238890866236195,389240,224557
1070.71293721462,0.238655998540987,390095,225172
1074.42588622538,0.238472704907504,391198,225904
1078.13456487764,0.23760608363643,392238,226957
1081.83897317142,0.237552916152915,394077,228049
1086.77154144991,0.237175648034303,396076,229405
1090.46598557387,0.236910315240497,398286,230826
1094.15615933934,0.236169315437126,400823,232693
1097.84206274632,0.236705736058791,403319,233853
1101.52369579481,0.235863216262226,406054,235896
1105.20105848481,0.236252568774275,409733,237820
1108.87415081632,0.234995203003279,412960,240388
1112.54297278934,0.235254404859675,416347,242215
1116.20752440387,0.235534726720668,420479,244461
1121.08695044336,0.23497601320863,425444,247666
1124.74153788807,0.235535317239282,429852,249910
1128.3918549743,0.236070862642278,434457,252276
1132.03790170203,0.23602813847766,439439,255194
1135.67967807127,0.236343330275519,443961,257633
1139.31718408202,0.236573507492614,448955,260393
1142.95041973428,0.236307593718208,454151,263568
1146.57938502805,0.236541008625376,459431,266489
1150.20407996333,0.237449570579068,464980,269144
1153.82450454012,0.237400012535307,470605,272431
1158.6450945293,0.238246705737457,478521,276474
1162.25555493627,0.238560761276991,484311,279617
1165.86174498476,0.238849461330372,490701,283118
1169.46366467475,0.239377407138232,497604,286752
1173.06131400625,0.239763782700191,504442,290434
1176.65469297927,0.240043375027535,511611,294372
1180.24380159379,0.241240964211348,518930,297761
1183.82863984982,0.240903789794415,526550,302368
1187.40920774736,0.241048553708994,534467,306812
1192.17665549754,0.241145390915489,544875,312717
1195.74725922527,0.241613260401447,553090,317090
1199.3135925945,0.241200684031274,561426,322175
1202.87565560525,0.241486778937269,569751,326737
1206.43344825751,0.241075816445294,578015,331790
1209.98697055127,0.240712166557317,586835,337135
1213.53622248654,0.240303997436994,595464,342414
1217.08120406333,0.239462308750142,603694,347820
1220.62191528162,0.239408834376462,612250,352793
1224.15835614142,0.23877844025003,620614,358132
1228.86696784128,0.237769730939107,631318,365156
1232.39344453127,0.237580970298746,639242,369900
1235.91565086277,0.236993810600549,646626,374679
1239.43358683578,0.236677720004107,653428,378896
1242.94725245029,0.236134783915738,659906,383131
1246.45664770632,0.235872821768604,666786,387359
1249.96177260386,0.235691069646495,672574,390885
1253.4626271429,0.235525602780605,677980,394177
1256.95921132345,0.235408321076573,683492,397489
1261.61468078432,0.235054938226428,692683,403162
1265.10130079506,0.23478460959201,699795,407555
1268.58365044731,0.234869967793144,706572,411421
1272.06172974107,0.234257507188832,712750,415604
1275.53553867634,0.234601307109093,718563,418662
1279.00507725312,0.234240921097615,723952,422152
1282.4703454714,0.234056915545585,729177,425379
1285.9313433312,0.233664034904344,733486,428280
1289.38807083251,0.233267625987703,737577,431062
1292.84052797532,0.233250031809427,741106,433142
1297.43716138587,0.233001355519235,746029,436269
1300.87965435887,0.232917148509626,749314,438275
1304.31787697338,0.232494623720876,751448,439951
1307.7518292294,0.232838434865291,754226,441228
1311.18151112693,0.232835788194937,756100,442327
1314.60692266597,0.232958646601181,757993,443309
1318.02806384652,0.233014682779095,759057,443874
1321.44493466858,0.233167541888928,759899,444210
1324.85753513215,0.233544877411704,760866,444389
1329.4010263037,0.233939939422733,761615,444422
1332.80366259745,0.2347890583846,761452,443459
1336.20202853272,0.235232290455917,761114,442810
1339.59612410949,0.235975719978128,760710,441818
1342.98594932777,0.236906970370485,759753,440317
1346.37150418756,0.238534393845329,758130,437733
1349.75278868886,0.239338275206335,756040,435719
1353.12980283167,0.240533145520186,753533,433081
1356.50254661599,0.241615570735561,751201,430666
1359.87102004182,0.243157562618622,748674,427696
1364.35567516305,0.244977194604971,745607,424163
1367.71418441907,0.245629093873779,743905,422560
1371.06842331659,0.246411976058887,740794,420035
1374.41839185563,0.247513688238596,736519,416553
1377.76409003617,0.248601768163902,729954,411807
1381.10551785823,0.250108126066723,724269,407185
1384.44267532179,0.252002899011839,718305,402074
1387.77556242686,0.253688000610486,712480,397269
1391.10417917344,0.256362743212208,707637,392146
1395.53569205567,0.26087441399617,701933,384965
1398.85434463244,0.265300790185394,698112,378987
1402.16872685072,0.270009688352347,694682,373058
1405.47883871051,0.276038841751457,691567,366265
1408.7846802118,0.282645480000143,688842,359314
1412.08625135461,0.289432734873749,686240,352406
1415.38355213892,0.296074660464603,683722,345784
1418.67658256475,0.302537863316445,681771,339704
1421.96534263208,0.308855368000667,680229,334041
1425.24983234092,0.314885384966991,678765,328726
1429.62250917284,0.321682530603283,676877,322721
1432.89703471187,0.326117849421501,676019,319037
1436.16728989241,0.330242578057981,674767,315436
1439.43327471445,0.333012841039015,673987,313068
1442.69498917801,0.335275224888332,672902,310940
1445.95243328308,0.33717025540012,672393,309352
1449.20560702965,0.338409846644425,670860,307767
1452.45451041774,0.339208443719185,669044,306370
1455.69914344733,0.338888335343609,666574,305464
1460.01867804025,0.339145613880241,664434,304303
1463.25334690003,0.339095483790872,661875,303166
1466.48374540132,0.338530213788361,658801,302151
1469.70987354412,0.337554848870515,655574,301347
1472.93173132843,0.337027796796714,652706,300393
1476.14931875425,0.335486689628375,649149,299818
1479.36263582158,0.334571026063306,645632,298823
1482.57168253042,0.333756205695322,641862,297636
1485.77645888076,0.332619126937609,637751,296505
1488.97696487262,0.331532731173991,634025,295511
1493.23766341522,0.329946466912099,627220,293409
1496.42820523726,0.328330916694465,622772,292414
1499.61447670082,0.327233418960357,617969,290893
1502.79647780588,0.32542570166194,612398,289473
1505.97420855245,0.32431555090947,606935,287625
1509.14766894053,0.322561508001104,601271,286094
1512.31685897012,0.320940994829094,595068,284201
1515.48177864122,0.319095383510716,588433,282229
1518.64242795382,0.317797911082992,582647,280290
1522.84998425743,0.315961290857006,573643,277128
1526.00066940022,0.315333061542649,567295,274458
1529.14708418453,0.313711429587993,559944,271915
1532.28922861034,0.312785171143996,552646,268944
1535.42710267766,0.312150011017112,544665,265448
1538.5607063865,0.311293925799668,536853,262157
1541.69003973684,0.310426994236995,528335,258513
1544.81510272869,0.310324206032214,520088,254538
1547.93589536205,0.309262829350351,511283,250841
1551.05241763692,0.308992881133203,502968,246915
1555.2011378902,0.308099616426095,491372,241719
1558.30769599526,0.307476137403929,482720,237804
1561.40998374183,0.306519603800714,474176,234110
1564.5080011299,0.306361585270003,464947,229637
1567.60174815948,0.305939906614406,455887,225381
1570.69122483058,0.305675905390213,446216,220734
1573.77643114318,0.305009715294776,436647,216332
1576.85736709729,0.304474337113963,427241,211933
1579.93403269291,0.303870011597887,417610,207444
1584.0296107072,0.302652037512524,404783,201637
1587.09631213301,0.301561570612224,395668,197592
1590.15874320033,0.301004166359799,386711,193367
1593.21690390916,0.300306139712789,377069,188849
1596.27079425949,0.299735876292917,368265,184682
1599.32041425134,0.298144355481205,359106,180750
1602.36576388469,0.296669585072192,349824,176677
1605.40684315956,0.295938678855176,340904,172462
1608.44365207593,0.2953172562976,332000,168198
1611.47619063381,0.294312237358649,322867,163950
1615.51293259778,0.293418131356077,311343,158424
1618.53550698585,0.292059648581205,302399,154355
1621.55381101543,0.291505689088984,293874,150195
1624.56784468652,0.290839583400166,285236,146004
1627.57760799912,0.290971529794903,277029,141760
1630.58310095323,0.290065372029875,268261,137560
1633.58432354884,0.290926441330701,259846,132981
1636.58127578597,0.290495846884375,251585,128881
1639.5739576646,0.29069443576863,243191,124524
1643.55755738958,0.291981808918189,232511,118703
1646.5402750984,0.292757433195293,224483,114400
1649.51872244873,0.294323065172674,216473,109921
1652.49289944057,0.296495247444678,208644,105417
1655.46280607392,0.298601783139864,201005,101066
1658.42844234878,0.300643824381739,193348,96760
1661.38980826515,0.302049722628128,185481,92523
1664.34690382303,0.302537904438496,177146,88266
1667.29972902242,0.304839632138981,168887,83706
1670.24828386331,0.303802643314019,159650,79317
1674.17304753796,0.305069133512282,144966,71812
1677.11163820905,0.304184261391797,132658,65849
1680.04595852164,0.306151305744348,119594,59096
1682.97600847574,0.304566621968206,105298,52222
1685.90178807136,0.307572048938469,91768,45198
1688.82329730848,0.307156889818286,79094,38993
1691.74053618711,0.310455717573531,67211,32884
1694.65350470725,0.311315767498166,56824,27747
1697.56220286889,0.30696836034161,47789,23570
1701.43382430455,0.317559820014702,39067,18804
