***Scan Config Information***,,,,,,,***Reference Scan Information***,,,,,,,,
Scan Config Name:,herbario,,,,,,Scan Config Name:,Local New Reference,,,,,,,
Scan Config Type:,Slew,Num Section:,1,,,,Scan Config Type:,Slew,Num Section:,1,,,,,
Section Config Type:,Column,,,,,,Section Config Type:,Column,,,,,,,
Start Wavelength (nm):,900,,,,,,Start Wavelength (nm):,900,,,,,,,
End Wavelength (nm):,1700,,,,,,End Wavelength (nm):,1700,,,,,,,
Pattern Width (nm):,7.03,,,,,,Pattern Width (nm):,7.03,,,,,,,
Exposure (ms):,0.635,,,,,,Exposure (ms):,0.635,,,,,,,
Digital Resolution:,228,,,,,,Digital Resolution:,228,,,,,,,
Num Repeats:,20,,,,,,Num Repeats:,20,,,,,,,
PGA Gain:,64,(FixedPGA),,,,,PGA Gain:,64,(AutoPGA),,,,,,
System Temp (C):,40.69,,,,,,System Temp (C):,40.51,,,,,,,
Humidity (%):,20.34,,,,,,Humidity (%):,20.53,,,,,,,
Lamp Indicator:,1113,,,,,,Lamp Indicator:,1117,,,,,,,
Data Date-Time:,2023/11/13T13:49:19,,,,,,Data Date-Time:,2023/11/13T13:47:47,,,,,,,
Total Measurement Time in sec:,6.8119732,,,,,,,,,,,,,,
,,,,,,,,,,,,,,,
***General Information***,,,,,,,***Calibration Coefficients***,,,,,,,,
Model Name:,NIR-S-G1,,,,,,Shift Vector Coefficients:,-5.08535400046452,0.0413457073195706,-8.39863846568903E-05,,,,,
Serial Number:,B07R011,(95UB122GC0AB07R011),,,,,Pixel to Wavelength Coefficients:,1794.37724621797,-0.920219689099738,-0.000237242138379873,,,,,
GUI Version:,3.9.4,Revision:,526,,,,Versions (Cal/Ref/Cfg):,1,3,1,,,,,
TIVA Version:,2.4.7,,,,,,***Lamp Usage ***,,,,,,,,
DLPC Version:,2.3.1,,,,,,Total Time(hh:mm:ss):,2hr 6min 29sec ,,,,,,,
UUID:,DE:67:0C:88:67:2B:47:21,,,,,,***Device/Error/Activation Status***,,,,,,,,
Main Board Version:,D,,,,,,Device Status:,0x00000001,Activation Status:,Activated,,,,,
Detector Board Version:,B,,,,,,Error status:,0x00000000,Error Code:,0x00000000000000000000000000000000,,,,,
,,,,,,,,,Error Details:,Not found,,,,,
***Scan Data***,,,,,,,,,,,,,,,
Wavelength (nm),Absorbance (AU),Reference Signal (unitless),Sample Signal (unitless)
901.81429527209,0.236438295586676,86563,50222
905.716563509274,0.235507540293464,93892,54591
909.614561387966,0.237033456382119,101601,58866
913.508288908168,0.235891229180506,110277,64061
917.397746069878,0.238304905505737,121463,70168
921.282932873098,0.235403572325778,134921,78465
925.163849317827,0.235087412526853,151294,88051
929.040495404065,0.235178858689808,169978,98904
932.912871131812,0.234022185980017,189102,110325
938.069395988934,0.23469044992947,213480,124356
941.931807546869,0.235046513762139,229666,133675
945.789948746314,0.234095672070759,243871,142254
949.643819587268,0.235155496160061,256402,149199
953.493420069731,0.234323901150355,267889,156182
957.338750193702,0.234229421087234,279250,162841
961.179809959184,0.234443352431353,290049,169055
965.016599366174,0.234951660772212,300561,174977
968.849118414673,0.235099040148198,310624,180774
973.952501032798,0.234819488327936,323595,188444
977.775055911486,0.234938923764225,333552,194189
981.593340431682,0.235702832138636,342254,198905
985.407354593388,0.23532744495819,349944,203550
989.217098396603,0.235348897105446,357521,207947
993.022571841327,0.235510489680646,363734,211482
996.823774927561,0.235796787860392,369378,214622
1000.6207076553,0.235860660093129,375018,217867
1004.41337002455,0.235029450942927,379388,220828
1008.20176203532,0.235692632943501,383194,222703
1013.24630860312,0.235515503980421,386543,224741
1017.02473644407,0.23556766897994,388891,226079
1020.79889392653,0.234898112960197,390705,227484
1024.5687810505,0.234903850348203,391684,228051
1028.33439781597,0.235207832617426,392247,228219
1032.09574422296,0.234984322364652,392509,228489
1035.85282027145,0.235431609085277,393180,228644
1039.60562596146,0.235067189881293,392943,228698
1043.35416129297,0.23509101867998,392846,228629
1048.34556562178,0.234990787778665,392453,228453
1052.08413678348,0.234300792013912,391878,228481
1055.81843758669,0.234690946850327,391571,228097
1059.54846803141,0.234853365934107,391453,227943
1063.27422811764,0.235356042990831,391786,227873
1066.99571784538,0.23482536459021,391651,228073
1070.71293721462,0.234918307429587,392123,228299
1074.42588622538,0.234271434252314,393311,229332
1078.13456487764,0.234824169554238,394461,229710
1081.83897317142,0.234515244221074,396111,230835
1086.77154144991,0.23481206361455,398281,231941
1090.46598557387,0.234821146275769,400283,233102
1094.15615933934,0.234781128045536,402753,234562
1097.84206274632,0.234859659095056,405158,235920
1101.52369579481,0.234887994816265,408190,237670
1105.20105848481,0.2350794235168,411504,239494
1108.87415081632,0.234826740084159,414979,241657
1112.54297278934,0.235309960728574,418434,243398
1116.20752440387,0.23583423999205,422239,245315
1121.08695044336,0.236805998711486,427896,248046
1124.74153788807,0.236881932653288,431846,250292
1128.3918549743,0.237983194120998,436824,252536
1132.03790170203,0.238104338163975,441595,255223
1135.67967807127,0.238710055028267,446238,257547
1139.31718408202,0.239334469809422,451060,259956
1142.95041973428,0.239958993243861,456326,262613
1146.57938502805,0.240203562572976,461592,265494
1150.20407996333,0.240926275466985,466880,268089
1153.82450454012,0.241769050686994,472875,271005
1158.6450945293,0.243136311566293,480699,274623
1162.25555493627,0.243368353548368,486343,277699
1165.86174498476,0.244320744297102,493022,280896
1169.46366467475,0.245001457376996,499644,284223
1173.06131400625,0.245605149862886,506657,287812
1176.65469297927,0.246353900372527,513742,291334
1180.24380159379,0.246622456046287,520869,295193
1183.82863984982,0.247095733990977,528810,299367
1187.40920774736,0.24714247150521,536451,303660
1192.17665549754,0.248069499956921,547207,309088
1195.74725922527,0.248724111224951,555630,313373
1199.3135925945,0.248816729628773,564089,318076
1202.87565560525,0.249003174440537,572269,322550
1206.43344825751,0.248971535943136,580624,327283
1209.98697055127,0.248967496465795,589645,332371
1213.53622248654,0.249152766762968,598437,337183
1217.08120406333,0.248669431636448,606476,342093
1220.62191528162,0.248763671207276,615112,346889
1224.15835614142,0.24781861384631,623533,352404
1228.86696784128,0.247459970563585,634218,358739
1232.39344453127,0.247232764189556,641919,363285
1235.91565086277,0.247000892566737,649490,367766
1239.43358683578,0.246750821736663,656561,371984
1242.94725245029,0.246201154996858,663441,376358
1246.45664770632,0.246183481019593,669996,380092
1249.96177260386,0.245848456198269,675549,383538
1253.4626271429,0.245758485038004,681164,386806
1256.95921132345,0.24597008333157,686778,389804
1261.61468078432,0.245565399319684,695816,395302
1265.10130079506,0.245709222160738,703146,399334
1268.58365044731,0.245844930824915,709807,402991
1272.06172974107,0.245398738439346,716250,407067
1275.53553867634,0.245780114878649,722122,410044
1279.00507725312,0.24526050726792,727079,413353
1282.4703454714,0.245402057490099,732563,416335
1285.9313433312,0.245286532760123,737130,419042
1289.38807083251,0.245450163671039,741464,421347
1292.84052797532,0.245008229532422,744493,423499
1297.43716138587,0.245100847172077,749656,426345
1300.87965435887,0.244966732213073,752520,428106
1304.31787697338,0.24512902764269,755504,429643
1307.7518292294,0.245403197342045,757804,430679
1311.18151112693,0.245317733737428,759634,431804
1314.60692266597,0.245742524270436,761485,432433
1318.02806384652,0.246106783849443,762947,432900
1321.44493466858,0.246424502230361,763717,433020
1324.85753513215,0.246733900449747,764376,433085
1329.4010263037,0.247679063289837,765210,432615
1332.80366259745,0.24842669953382,765033,431771
1336.20202853272,0.249487476282983,764689,430524
1339.59612410949,0.250678130180496,764375,429169
1342.98594932777,0.251999563233812,763494,427372
1346.37150418756,0.253236710347761,761632,425117
1349.75278868886,0.254574913965596,759788,422783
1353.12980283167,0.256017829316233,757450,420084
1356.50254661599,0.25730626357023,755230,417612
1359.87102004182,0.25869635371412,752301,414663
1364.35567516305,0.26040993043364,749494,411489
1367.71418441907,0.261450874797239,747159,409225
1371.06842331659,0.262549219929265,744442,406707
1374.41839185563,0.263490230069523,740051,403433
1377.76409003617,0.26486745294149,734047,398893
1381.10551785823,0.265745863228465,727702,394646
1384.44267532179,0.267631128549016,721921,389815
1387.77556242686,0.269272855457589,716340,385342
1391.10417917344,0.272281665047253,711107,379886
1395.53569205567,0.276105476631585,705083,373366
1398.85434463244,0.280272726604851,701385,367861
1402.16872685072,0.284877477453403,697889,362167
1405.47883871051,0.289884501114617,694964,356515
1408.7846802118,0.295994105640298,692100,350086
1412.08625135461,0.302076479783418,689736,344038
1415.38355213892,0.308177340829457,687203,337993
1418.67658256475,0.31398254570145,685169,332518
1421.96534263208,0.32005678898547,683565,327132
1425.24983234092,0.326055056264318,682328,322061
1429.62250917284,0.331671331581289,680227,316944
1432.89703471187,0.335732011602479,679325,313578
1436.16728989241,0.339530379845333,678061,310269
1439.43327471445,0.342069590908724,677445,308180
1442.69498917801,0.343588032346512,676189,306535
1445.95243328308,0.344972972874629,675587,305287
1449.20560702965,0.346197218655411,674314,303854
1452.45451041774,0.346953318264714,672599,302554
1455.69914344733,0.347328411908596,670370,301291
1460.01867804025,0.347776385244209,667712,299787
1463.25334690003,0.347473182823736,665274,298901
1466.48374540132,0.347306751499249,662238,297651
1469.70987354412,0.346493353756951,658636,296587
1472.93173132843,0.345806158044938,655965,295852
1476.14931875425,0.344729141415298,652363,294958
1479.36263582158,0.344224442729897,648919,293742
1482.57168253042,0.342880721570132,644897,292826
1485.77645888076,0.342220379392542,640876,291443
1488.97696487262,0.341485136020037,637173,290250
1493.23766341522,0.339992919751149,630542,288218
1496.42820523726,0.33905710548421,625454,286509
1499.61447670082,0.338417816179072,620691,284746
1502.79647780588,0.336852047961455,615486,283378
1505.97420855245,0.335291413072902,609571,281665
1509.14766894053,0.334607455958527,604314,279676
1512.31685897012,0.333315660243469,598204,277673
1515.48177864122,0.332384179435877,591232,275026
1518.64242795382,0.331600637353734,585675,272933
1522.84998425743,0.32990427752262,576430,269676
1526.00066940022,0.328803595002834,569758,267231
1529.14708418453,0.328436384787067,562434,264019
1532.28922861034,0.327757269313429,555068,260969
1535.42710267766,0.327251304695051,547190,257565
1538.5607063865,0.327147167552825,539489,254001
1541.69003973684,0.326231938103604,531005,250534
1544.81510272869,0.326112653723744,522481,246580
1547.93589536205,0.326482201139646,514093,242415
1551.05241763692,0.326045599221423,505672,238684
1555.2011378902,0.325384505524318,493922,233493
1558.30769599526,0.325322562416025,485220,229412
1561.40998374183,0.324930545562541,476505,225495
1564.5080011299,0.324317213778246,467318,221460
1567.60174815948,0.324456404806651,457931,216942
1570.69122483058,0.323478039943251,448453,212931
1573.77643114318,0.323515149643688,438952,208402
1576.85736709729,0.323738169587281,429648,203880
1579.93403269291,0.323562932252435,419869,199320
1584.0296107072,0.322980802215896,407101,193518
1587.09631213301,0.322256314420047,397713,189371
1590.15874320033,0.321817634423023,388529,185185
1593.21690390916,0.321310123152219,378930,180821
1596.27079425949,0.320777054507198,370250,176896
1599.32041425134,0.319262889564832,361169,173160
1602.36576388469,0.318546397074865,351830,168961
1605.40684315956,0.318056084973118,342641,164734
1608.44365207593,0.316809739557834,333361,160733
1611.47619063381,0.316990319296862,324752,156517
1615.51293259778,0.316256477739697,312863,151042
1618.53550698585,0.314985493652663,304020,147203
1621.55381101543,0.314641114178122,295287,143088
1624.56784468652,0.314547245921882,286733,138973
1627.57760799912,0.314041816391617,278150,134970
1630.58310095323,0.314450192188381,269352,130578
1633.58432354884,0.314359038671571,261174,126640
1636.58127578597,0.314397931966337,252673,122507
1639.5739576646,0.315837508103011,244773,118284
1643.55755738958,0.316000364793286,233508,112798
1646.5402750984,0.31781726612521,225706,108574
1649.51872244873,0.31859776762174,217788,104577
1652.49289944057,0.319878379596605,209669,100382
1655.46280607392,0.322368762788249,201974,96145
1658.42844234878,0.324589574847536,194308,92024
1661.38980826515,0.325099257513098,186446,88197
1664.34690382303,0.327269787143823,178406,83973
1667.29972902242,0.329578916873742,169579,79395
1670.24828386331,0.328648245751759,160322,75222
1674.17304753796,0.330717855221291,145729,68050
1677.11163820905,0.329997864026598,132801,62116
1680.04595852164,0.332001707254207,119364,55574
1682.97600847574,0.330383049851304,105165,49146
1685.90178807136,0.331441507835913,91528,42669
1688.82329730848,0.331740020910801,78409,36528
1691.74053618711,0.332136103593283,66696,31043
1694.65350470725,0.33383619048913,56641,26260
1697.56220286889,0.336282371414589,47714,21997
1701.43382430455,0.339106568538418,38670,17712
