***Scan Config Information***,,,,,,,***Reference Scan Information***,,,,,,,,
Scan Config Name:,herbario,,,,,,Scan Config Name:,Local New Reference,,,,,,,
Scan Config Type:,Slew,Num Section:,1,,,,Scan Config Type:,Slew,Num Section:,1,,,,,
Section Config Type:,Column,,,,,,Section Config Type:,Column,,,,,,,
Start Wavelength (nm):,900,,,,,,Start Wavelength (nm):,900,,,,,,,
End Wavelength (nm):,1700,,,,,,End Wavelength (nm):,1700,,,,,,,
Pattern Width (nm):,7.03,,,,,,Pattern Width (nm):,7.03,,,,,,,
Exposure (ms):,0.635,,,,,,Exposure (ms):,0.635,,,,,,,
Digital Resolution:,228,,,,,,Digital Resolution:,228,,,,,,,
Num Repeats:,20,,,,,,Num Repeats:,20,,,,,,,
PGA Gain:,64,(FixedPGA),,,,,PGA Gain:,64,(AutoPGA),,,,,,
System Temp (C):,41.79,,,,,,System Temp (C):,41.57,,,,,,,
Humidity (%):,17.5,,,,,,Humidity (%):,17.6,,,,,,,
Lamp Indicator:,1123,,,,,,Lamp Indicator:,1129,,,,,,,
Data Date-Time:,2023/11/10T19:11:37,,,,,,Data Date-Time:,2023/11/10T19:10:28,,,,,,,
Total Measurement Time in sec:,6.7504146,,,,,,,,,,,,,,
,,,,,,,,,,,,,,,
***General Information***,,,,,,,***Calibration Coefficients***,,,,,,,,
Model Name:,NIR-S-G1,,,,,,Shift Vector Coefficients:,-5.08535400046452,0.0413457073195706,-8.39863846568903E-05,,,,,
Serial Number:,B07R011,(95UB122GC0AB07R011),,,,,Pixel to Wavelength Coefficients:,1794.37724621797,-0.920219689099738,-0.000237242138379873,,,,,
GUI Version:,3.9.4,Revision:,526,,,,Versions (Cal/Ref/Cfg):,1,3,1,,,,,
TIVA Version:,2.4.7,,,,,,***Lamp Usage ***,,,,,,,,
DLPC Version:,2.3.1,,,,,,Total Time(hh:mm:ss):,1hr 41min 54sec ,,,,,,,
UUID:,DE:67:0C:88:67:2B:47:21,,,,,,***Device/Error/Activation Status***,,,,,,,,
Main Board Version:,D,,,,,,Device Status:,0x00000001,Activation Status:,Activated,,,,,
Detector Board Version:,B,,,,,,Error status:,0x00000000,Error Code:,0x00000000000000000000000000000000,,,,,
,,,,,,,,,Error Details:,Not found,,,,,
***Scan Data***,,,,,,,,,,,,,,,
Wavelength (nm),Absorbance (AU),Reference Signal (unitless),Sample Signal (unitless)
901.81429527209,0.334874382474706,85407,39502
905.716563509274,0.332471984972006,92627,43079
909.614561387966,0.334363347495743,100296,46443
913.508288908168,0.333624295968837,109012,50565
917.397746069878,0.332764420998054,119690,55628
921.282932873098,0.334613362895556,133133,61613
925.163849317827,0.333356163455159,149252,69273
929.040495404065,0.333630409611975,167305,77603
932.912871131812,0.332136930802703,186527,86817
938.069395988934,0.332842036015231,210586,97856
941.931807546869,0.330713772356957,226607,105818
945.789948746314,0.329860431851013,240343,112453
949.643819587268,0.330467949961881,252849,118139
953.493420069731,0.331316003308221,264578,123378
957.338750193702,0.330794952010731,275934,128828
961.179809959184,0.329986736369125,286367,133948
965.016599366174,0.330150601728366,296589,138677
968.849118414673,0.329364199431512,306432,143539
973.952501032798,0.329022813804992,319308,149688
977.775055911486,0.329600118359094,328988,154021
981.593340431682,0.328915326500814,337544,158276
985.407354593388,0.329604084968788,345402,161704
989.217098396603,0.328905130409572,352639,165358
993.022571841327,0.328834945596328,358951,168345
996.823774927561,0.329221234198781,364753,170914
1000.6207076553,0.329131584189686,369965,173392
1004.41337002455,0.328801851281715,374217,175518
1008.20176203532,0.328410076191467,377831,177373
1013.24630860312,0.328161541532009,381019,178972
1017.02473644407,0.328152985238214,383547,180163
1020.79889392653,0.328376558380593,385080,180790
1024.5687810505,0.328576179564991,386493,181370
1028.33439781597,0.328662939176758,387248,181688
1032.09574422296,0.328507110401076,387222,181741
1035.85282027145,0.32864864158429,387572,181846
1039.60562596146,0.328800691632403,387454,181727
1043.35416129297,0.328503599207567,387221,181742
1048.34556562178,0.328546442551016,386865,181557
1052.08413678348,0.329497316899864,386831,181144
1055.81843758669,0.329561209082188,386559,180990
1059.54846803141,0.328868581199369,386233,181126
1063.27422811764,0.329140271057955,386304,181046
1066.99571784538,0.329589458519209,386629,181011
1070.71293721462,0.329525819714807,386929,181178
1074.42588622538,0.329576217953688,387950,181635
1078.13456487764,0.328705476672744,389004,182494
1081.83897317142,0.329475415249798,390747,182987
1086.77154144991,0.330183713336051,393113,183795
1090.46598557387,0.330398833164127,395330,184740
1094.15615933934,0.32996782804146,397779,186069
1097.84206274632,0.330712971623615,400353,186952
1101.52369579481,0.33084716556141,403058,188157
1105.20105848481,0.330342301868835,406118,189806
1108.87415081632,0.330826147951899,409893,191357
1112.54297278934,0.330964232669034,413081,192784
1116.20752440387,0.332002171933515,417274,194276
1121.08695044336,0.331823197720264,422375,196732
1124.74153788807,0.332196539136918,426778,198612
1128.3918549743,0.332667937235914,431234,200468
1132.03790170203,0.333555545288887,435910,202228
1135.67967807127,0.333763645509884,440624,204317
1139.31718408202,0.333633550349181,445649,206709
1142.95041973428,0.334156513586209,451034,208955
1146.57938502805,0.334887490726207,456010,210905
1150.20407996333,0.334905515070016,461294,213340
1153.82450454012,0.335813484130724,467165,215604
1158.6450945293,0.335989733090155,474768,219024
1162.25555493627,0.336782666245083,481069,221526
1165.86174498476,0.336930653746555,487107,224230
1169.46366467475,0.336411827436073,493588,227485
1173.06131400625,0.337098484224677,500743,230418
1176.65469297927,0.337563656534793,507593,233320
1180.24380159379,0.337939261967486,514719,236391
1183.82863984982,0.338107461757858,522588,239912
1187.40920774736,0.337846570065388,530786,243822
1192.17665549754,0.338206281776665,540760,248198
1195.74725922527,0.338464446963484,549333,251983
1199.3135925945,0.338621756777355,557588,255677
1202.87565560525,0.33831109055158,565671,259569
1206.43344825751,0.33810050524927,573833,263442
1209.98697055127,0.338006953210196,582673,267558
1213.53622248654,0.337502882465425,591170,271775
1217.08120406333,0.337410983588109,599309,275575
1220.62191528162,0.337498283100447,607978,279505
1224.15835614142,0.336961086618308,616490,283769
1228.86696784128,0.336677335380016,626806,288706
1232.39344453127,0.335971819123597,634474,292713
1235.91565086277,0.335570487108963,641632,296289
1239.43358683578,0.335589907055721,648515,299454
1242.94725245029,0.335096394297421,655248,302907
1246.45664770632,0.335017682541309,661808,305995
1249.96177260386,0.334766341081814,667458,308786
1253.4626271429,0.334551020633788,672483,311265
1256.95921132345,0.334735948741544,678415,313877
1261.61468078432,0.334341435338158,687415,318330
1265.10130079506,0.334318455009963,694526,321640
1268.58365044731,0.334696745201341,701161,324430
1272.06172974107,0.33440380971513,707472,327571
1275.53553867634,0.334316949826216,713165,330273
1279.00507725312,0.334329633446628,718323,332652
1282.4703454714,0.33400665075452,723328,335219
1285.9313433312,0.334209830578729,727725,337099
1289.38807083251,0.334248924419047,731586,338857
1292.84052797532,0.333926838600588,735257,340810
1297.43716138587,0.333982650016989,739861,342900
1300.87965435887,0.334291860802773,743169,344188
1304.31787697338,0.334359084947248,745869,345385
1307.7518292294,0.334621962955244,748153,346233
1311.18151112693,0.334637411964666,750038,347093
1314.60692266597,0.334922439874351,751817,347688
1318.02806384652,0.335435747050679,753059,347851
1321.44493466858,0.33539770429712,753768,348209
1324.85753513215,0.335800829392991,754728,348329
1329.4010263037,0.33677860762165,755200,347763
1332.80366259745,0.337066485070712,755214,347539
1336.20202853272,0.337907327608216,754840,346695
1339.59612410949,0.338787999009906,754520,345846
1342.98594932777,0.339811316767916,753573,344599
1346.37150418756,0.341212401900368,752081,342809
1349.75278868886,0.341942820073958,749866,341225
1353.12980283167,0.343479324807917,747555,338972
1356.50254661599,0.343358461709115,745495,338132
1359.87102004182,0.34458095706328,742624,335883
1364.35567516305,0.345835089807951,739634,333566
1367.71418441907,0.346769890543276,737699,331978
1371.06842331659,0.347343580618754,734758,330218
1374.41839185563,0.34850625405801,730222,327302
1377.76409003617,0.348721332832358,724269,324473
1381.10551785823,0.350002126049659,718286,320845
1384.44267532179,0.35081916627023,712192,317525
1387.77556242686,0.352669606382764,706777,313771
1391.10417917344,0.354460063333991,701604,310193
1395.53569205567,0.357362351892134,696178,305744
1398.85434463244,0.360391347059246,692186,301878
1402.16872685072,0.363815331849588,688640,297973
1405.47883871051,0.367896163134129,685854,293992
1408.7846802118,0.3718283588781,683137,290188
1412.08625135461,0.376541459073679,680691,286028
1415.38355213892,0.380662310572105,677979,282198
1418.67658256475,0.385154171777475,676063,278505
1421.96534263208,0.38940879366698,674688,275229
1425.24983234092,0.393218969033578,673291,272260
1429.62250917284,0.397311597896491,671263,268894
1432.89703471187,0.399937416289913,670351,266910
1436.16728989241,0.401956186067325,668824,265067
1439.43327471445,0.403475584317968,668246,263913
1442.69498917801,0.40441113642369,667180,262925
1445.95243328308,0.405370775667107,666807,262198
1449.20560702965,0.406111953894754,665373,261188
1452.45451041774,0.406126989898276,663386,260399
1455.69914344733,0.40670921636699,661452,259292
1460.01867804025,0.406301117418529,658537,258392
1463.25334690003,0.406149007009964,655909,257451
1466.48374540132,0.406175134937504,653049,256313
1469.70987354412,0.40621649244294,649949,255072
1472.93173132843,0.405649635743053,646844,254185
1476.14931875425,0.40463133627124,643458,253448
1479.36263582158,0.404219408786898,639959,252309
1482.57168253042,0.403825783543252,636019,250983
1485.77645888076,0.402670916732594,631934,250035
1488.97696487262,0.40201163284297,628091,248892
1493.23766341522,0.401601095258698,621893,246669
1496.42820523726,0.40051517168459,617136,245395
1499.61447670082,0.399844134055204,612369,243876
1502.79647780588,0.399122486353598,607013,242145
1505.97420855245,0.398627503454577,601544,240237
1509.14766894053,0.39722336085847,596123,238843
1512.31685897012,0.397003374438389,590086,236544
1515.48177864122,0.395925411641649,583604,234527
1518.64242795382,0.395084110661777,577557,232547
1522.84998425743,0.394661329306711,569147,229384
1526.00066940022,0.394299225213412,562455,226876
1529.14708418453,0.393158124218545,555072,224487
1532.28922861034,0.392953522973253,547715,221616
1535.42710267766,0.392701343262176,540150,218682
1538.5607063865,0.392719717469548,532098,215413
1541.69003973684,0.392064822062412,523934,212428
1544.81510272869,0.392083568373364,515605,209042
1547.93589536205,0.392081797393338,506980,205546
1551.05241763692,0.392096525574429,498485,202095
1555.2011378902,0.391693288975897,486970,197610
1558.30769599526,0.391516194642587,478884,194408
1561.40998374183,0.391979413462921,470064,190624
1564.5080011299,0.390965860803787,461231,187479
1567.60174815948,0.390972137163168,451788,183638
1570.69122483058,0.391327962414179,442238,179609
1573.77643114318,0.391493371051542,433076,175821
1576.85736709729,0.390809901098305,423876,172357
1579.93403269291,0.390141479544386,414124,168651
1584.0296107072,0.390265496241855,401497,163462
1587.09631213301,0.389739682313454,392155,159852
1590.15874320033,0.389454419337319,383459,156410
1593.21690390916,0.388408455484211,373820,152846
1596.27079425949,0.388328508476125,365381,149423
1599.32041425134,0.387313966427247,356290,146046
1602.36576388469,0.38735671934965,347349,142367
1605.40684315956,0.386600800544411,338464,138967
1608.44365207593,0.385504723975246,329137,135479
1611.47619063381,0.384578797612981,320579,132238
1615.51293259778,0.384855765712072,308834,127312
1618.53550698585,0.383270085725874,299950,124102
1621.55381101543,0.382483318355268,291185,120694
1624.56784468652,0.383556210221236,282959,116995
1627.57760799912,0.383749686204636,274522,113456
1630.58310095323,0.382598411340002,266237,110324
1633.58432354884,0.383929147175978,257829,106513
1636.58127578597,0.38320138239856,249599,103286
1639.5739576646,0.384046514914067,241647,99801
1643.55755738958,0.384123996274204,230773,95293
1646.5402750984,0.385824469049988,222960,91707
1649.51872244873,0.386721440726402,215089,88287
1652.49289944057,0.387450024018321,207214,84912
1655.46280607392,0.389472525283855,199686,81447
1658.42844234878,0.390906483019899,192379,78208
1661.38980826515,0.391957066671692,184370,74771
1664.34690382303,0.391486552201831,176446,71635
1667.29972902242,0.397167121951373,168143,67377
1670.24828386331,0.39465304866358,159203,64165
1674.17304753796,0.395459941249297,144930,58304
1677.11163820905,0.395831070256224,132811,53383
1680.04595852164,0.396953767042173,119860,48053
1682.97600847574,0.395132462497354,106159,42739
1685.90178807136,0.395392379777661,92379,37169
1688.82329730848,0.395851292034272,79651,32014
1691.74053618711,0.3915802203288,67721,27488
1694.65350470725,0.397536772746594,57594,23059
1697.56220286889,0.402216693271745,48831,19341
1701.43382430455,0.401250924337122,39238,15576
