***Scan Config Information***,,,,,,,***Reference Scan Information***,,,,,,,,
Scan Config Name:,herbario,,,,,,Scan Config Name:,Local New Reference,,,,,,,
Scan Config Type:,Slew,Num Section:,1,,,,Scan Config Type:,Slew,Num Section:,1,,,,,
Section Config Type:,Column,,,,,,Section Config Type:,Column,,,,,,,
Start Wavelength (nm):,900,,,,,,Start Wavelength (nm):,900,,,,,,,
End Wavelength (nm):,1700,,,,,,End Wavelength (nm):,1700,,,,,,,
Pattern Width (nm):,7.03,,,,,,Pattern Width (nm):,7.03,,,,,,,
Exposure (ms):,0.635,,,,,,Exposure (ms):,0.635,,,,,,,
Digital Resolution:,228,,,,,,Digital Resolution:,228,,,,,,,
Num Repeats:,20,,,,,,Num Repeats:,20,,,,,,,
PGA Gain:,64,(FixedPGA),,,,,PGA Gain:,64,(AutoPGA),,,,,,
System Temp (C):,38.34,,,,,,System Temp (C):,37.83,,,,,,,
Humidity (%):,29.55,,,,,,Humidity (%):,29.73,,,,,,,
Lamp Indicator:,1094,,,,,,Lamp Indicator:,1093,,,,,,,
Data Date-Time:,2023/11/10T13:22:58,,,,,,Data Date-Time:,2023/11/10T13:20:45,,,,,,,
Total Measurement Time in sec:,6.7401311,,,,,,,,,,,,,,
,,,,,,,,,,,,,,,
***General Information***,,,,,,,***Calibration Coefficients***,,,,,,,,
Model Name:,NIR-S-G1,,,,,,Shift Vector Coefficients:,-5.08535400046452,0.0413457073195706,-8.39863846568903E-05,,,,,
Serial Number:,B07R011,(95UB122GC0AB07R011),,,,,Pixel to Wavelength Coefficients:,1794.37724621797,-0.920219689099738,-0.000237242138379873,,,,,
GUI Version:,3.9.4,Revision:,526,,,,Versions (Cal/Ref/Cfg):,1,3,1,,,,,
TIVA Version:,2.4.7,,,,,,***Lamp Usage ***,,,,,,,,
DLPC Version:,2.3.1,,,,,,Total Time(hh:mm:ss):,50min 19sec ,,,,,,,
UUID:,DE:67:0C:88:67:2B:47:21,,,,,,***Device/Error/Activation Status***,,,,,,,,
Main Board Version:,D,,,,,,Device Status:,0x00000001,Activation Status:,Activated,,,,,
Detector Board Version:,B,,,,,,Error status:,0x00000000,Error Code:,0x00000000000000000000000000000000,,,,,
,,,,,,,,,Error Details:,Not found,,,,,
***Scan Data***,,,,,,,,,,,,,,,
Wavelength (nm),Absorbance (AU),Reference Signal (unitless),Sample Signal (unitless)
901.81429527209,0.230889593777261,87855,51627
905.716563509274,0.230473986579172,95299,56055
909.614561387966,0.228068897056732,102998,60920
913.508288908168,0.228488845851378,112326,66373
917.397746069878,0.226336162868845,123742,73482
921.282932873098,0.22765549663096,137986,81692
925.163849317827,0.225385946494706,155004,92248
929.040495404065,0.225309980033265,174139,103654
932.912871131812,0.225820620175785,193727,115178
938.069395988934,0.224316262754374,217690,129874
941.931807546869,0.224742502695213,233952,139439
945.789948746314,0.222343578727884,247350,148241
949.643819587268,0.222652430195827,259984,155702
953.493420069731,0.222987331249874,271683,162583
957.338750193702,0.222728822834559,283048,169485
961.179809959184,0.222427814272584,293693,175981
965.016599366174,0.222285301719229,303907,182161
968.849118414673,0.223054615229295,314248,188026
973.952501032798,0.223533362885105,327784,195909
977.775055911486,0.222378930734451,337420,202205
981.593340431682,0.223067330842321,346068,207059
985.407354593388,0.222466173365623,353826,211994
989.217098396603,0.222979490524037,361505,216339
993.022571841327,0.222450058633037,367879,220422
996.823774927561,0.222126871623787,373324,223851
1000.6207076553,0.221769271207092,378824,227336
1004.41337002455,0.221510658901032,383503,230281
1008.20176203532,0.220679005105286,386840,232730
1013.24630860312,0.220295616649012,390496,235137
1017.02473644407,0.220048281304721,392682,236588
1020.79889392653,0.21937363819846,394313,237940
1024.5687810505,0.219106193647621,395478,238790
1028.33439781597,0.218686318515291,396077,239383
1032.09574422296,0.218746867032331,396210,239430
1035.85282027145,0.218537314379089,396568,239762
1039.60562596146,0.217837736507852,396473,240091
1043.35416129297,0.217072417139095,396192,240344
1048.34556562178,0.217492109574932,396250,240147
1052.08413678348,0.217739386003898,395916,239808
1055.81843758669,0.217519695104057,395427,239633
1059.54846803141,0.217820201829429,395562,239549
1063.27422811764,0.216915217378664,395490,240005
1066.99571784538,0.216565307659398,395565,240244
1070.71293721462,0.216341744940581,396074,240677
1074.42588622538,0.216036806248951,397008,241414
1078.13456487764,0.215484936944772,398299,242507
1081.83897317142,0.21597391617542,400170,243372
1086.77154144991,0.215417222329278,402252,244952
1090.46598557387,0.21537803278947,404572,246387
1094.15615933934,0.215053664066792,407120,248124
1097.84206274632,0.215416011330195,409726,249504
1101.52369579481,0.214909247693795,412281,251353
1105.20105848481,0.215415458614179,415900,253264
1108.87415081632,0.215549234670661,419596,255436
1112.54297278934,0.2147443450394,422623,257756
1116.20752440387,0.215387020051443,426620,259809
1121.08695044336,0.215866878847607,432209,262922
1124.74153788807,0.216140944007734,436400,265304
1128.3918549743,0.217057160428285,441675,267945
1132.03790170203,0.216664454140863,446200,270935
1135.67967807127,0.216878828819997,450907,273658
1139.31718408202,0.217270382415884,455816,276388
1142.95041973428,0.217603267618938,461206,279442
1146.57938502805,0.217892691465723,466445,282428
1150.20407996333,0.218769538969584,471985,285206
1153.82450454012,0.219687237079538,477806,288114
1158.6450945293,0.220013081682302,485867,292755
1162.25555493627,0.221088818781262,492005,295720
1165.86174498476,0.221223348622205,498470,299513
1169.46366467475,0.221736439165867,505211,303205
1173.06131400625,0.221714203595843,512073,307339
1176.65469297927,0.222369072213886,519472,311310
1180.24380159379,0.222940938736025,526337,315009
1183.82863984982,0.223131725911042,534612,319821
1187.40920774736,0.223242650911036,542582,324506
1192.17665549754,0.224441325321254,553610,330189
1195.74725922527,0.223911437360732,561318,335195
1199.3135925945,0.224368754814654,570427,340276
1202.87565560525,0.224544593451366,578899,345190
1206.43344825751,0.22455483565681,587018,350023
1209.98697055127,0.224496075984401,596277,355592
1213.53622248654,0.224234443792578,604882,360941
1217.08120406333,0.224054837764357,613336,366137
1220.62191528162,0.223628702007747,621989,371667
1224.15835614142,0.223111098416256,630388,377135
1228.86696784128,0.222712558102185,641498,384134
1232.39344453127,0.222549717686712,649207,388896
1235.91565086277,0.222213849717678,656892,393804
1239.43358683578,0.221571438639804,663811,398541
1242.94725245029,0.22165676049668,670935,402739
1246.45664770632,0.221489746375635,677568,406877
1249.96177260386,0.221014444788512,683168,410689
1253.4626271429,0.220860980375618,688622,414114
1256.95921132345,0.221153336962139,694527,417384
1261.61468078432,0.221111339167351,703977,423104
1265.10130079506,0.220903192000853,711293,427706
1268.58365044731,0.22086985958459,717772,431635
1272.06172974107,0.220406240709387,724071,435888
1275.53553867634,0.220514874274418,730041,439372
1279.00507725312,0.22046961972329,734974,442387
1282.4703454714,0.220416988109039,740518,445778
1285.9313433312,0.220198609128026,745067,448742
1289.38807083251,0.220138012110201,749198,451293
1292.84052797532,0.220198606856538,752859,453435
1297.43716138587,0.220122184999404,757881,456540
1300.87965435887,0.220097597713722,760914,458393
1304.31787697338,0.220230878054685,763439,459773
1307.7518292294,0.220256124003828,765946,461256
1311.18151112693,0.220623865710758,767838,462004
1314.60692266597,0.220655524298164,769581,463019
1318.02806384652,0.221259732105909,770714,463056
1321.44493466858,0.22145947938312,771693,463431
1324.85753513215,0.221887736121243,772381,463387
1329.4010263037,0.22329147575055,773308,462446
1332.80366259745,0.224024657234343,773025,461497
1336.20202853272,0.22496600618221,772599,460244
1339.59612410949,0.226085661028151,772148,458791
1342.98594932777,0.227513538099959,771204,456726
1346.37150418756,0.228900385748592,769429,454222
1349.75278868886,0.230163278147749,767098,451531
1353.12980283167,0.231740034931631,764599,448429
1356.50254661599,0.23310886906169,762049,445527
1359.87102004182,0.23441528182614,759011,442418
1364.35567516305,0.236432117540129,756215,438746
1367.71418441907,0.237706048891542,754388,436404
1371.06842331659,0.239195379141519,751519,433256
1374.41839185563,0.240595524886369,746503,428979
1377.76409003617,0.242493085048345,740276,423546
1381.10551785823,0.244482780444655,734322,418219
1384.44267532179,0.247347674110498,728413,412126
1387.77556242686,0.250687976788735,722679,405749
1391.10417917344,0.254827657831026,717587,399068
1395.53569205567,0.26150617430348,711780,389798
1398.85434463244,0.267659393670602,707857,382196
1402.16872685072,0.274970008131734,704163,373855
1405.47883871051,0.283031203385571,701343,365510
1408.7846802118,0.29138031092801,698641,357169
1412.08625135461,0.299828837290986,696130,349029
1415.38355213892,0.308279356920979,693439,340980
1418.67658256475,0.31580377563674,691866,334363
1421.96534263208,0.322954797786736,690079,328053
1425.24983234092,0.328901935996059,688690,322940
1429.62250917284,0.335587209639817,686596,317040
1432.89703471187,0.339833305169625,685611,313505
1436.16728989241,0.344093218471883,684211,309811
1439.43327471445,0.347226101513595,683768,307385
1442.69498917801,0.349590343990218,682363,305088
1445.95243328308,0.351050712030326,681937,303874
1449.20560702965,0.352474437045607,680862,302402
1452.45451041774,0.353046153227596,678792,301086
1455.69914344733,0.353371072460898,676270,299743
1460.01867804025,0.352829018229908,673439,298861
1463.25334690003,0.352615123719403,671193,298011
1466.48374540132,0.351364929989365,668006,297451
1469.70987354412,0.350040175978698,664899,296972
1472.93173132843,0.34884816764357,661786,296394
1476.14931875425,0.347076991721757,658441,296101
1479.36263582158,0.344887799244339,654586,295855
1482.57168253042,0.342860440695042,650738,295492
1485.77645888076,0.340521775611135,646516,295160
1488.97696487262,0.338469472199732,642487,294710
1493.23766341522,0.335974386788369,635865,293353
1496.42820523726,0.334041953239733,631171,292486
1499.61447670082,0.332414049334032,626234,291288
1502.79647780588,0.330617304448238,620953,290029
1505.97420855245,0.328950608813164,615081,288391
1509.14766894053,0.327053853802521,609417,286986
1512.31685897012,0.324783424455359,603170,285533
1515.48177864122,0.323587541198325,596367,283091
1518.64242795382,0.321996856867919,590459,281315
1522.84998425743,0.320201705011845,581276,278087
1526.00066940022,0.31898604879916,574659,275692
1529.14708418453,0.317860736521886,567413,272922
1532.28922861034,0.316384574928379,559798,270176
1535.42710267766,0.315468389686237,551820,266888
1538.5607063865,0.314650146439798,543581,263399
1541.69003973684,0.313676041418885,535041,259843
1544.81510272869,0.313234744393407,526681,256043
1547.93589536205,0.312344098616172,518058,252368
1551.05241763692,0.31143010477379,509283,248616
1555.2011378902,0.310410660357419,497656,243511
1558.30769599526,0.309915694685083,488836,239468
1561.40998374183,0.309146588543155,480028,235570
1564.5080011299,0.308753053286593,470957,231328
1567.60174815948,0.307906425123485,461268,227011
1570.69122483058,0.307503123587998,451725,222521
1573.77643114318,0.306671887746438,442011,218153
1576.85736709729,0.305968500713703,432567,213838
1579.93403269291,0.304826428397563,422588,209455
1584.0296107072,0.304916080555445,410075,203211
1587.09631213301,0.30360323244863,400164,198900
1590.15874320033,0.303699119597985,391380,194491
1593.21690390916,0.30237471530242,381363,190092
1596.27079425949,0.300985671449841,372310,186174
1599.32041425134,0.300333812702,363397,181990
1602.36576388469,0.29918189216322,353853,177681
1605.40684315956,0.297897272322094,344778,173637
1608.44365207593,0.297901234890372,335673,169050
1611.47619063381,0.297255035218672,326573,164712
1615.51293259778,0.296118795925609,314351,158963
1618.53550698585,0.295699084501067,305898,154838
1621.55381101543,0.295379433153925,297192,150542
1624.56784468652,0.294878213799473,288382,146248
1627.57760799912,0.294420174457084,279602,141945
1630.58310095323,0.293718465385199,270881,137740
1633.58432354884,0.29414294611523,262443,133319
1636.58127578597,0.295369419890738,254130,128732
1639.5739576646,0.294493085172738,245621,124673
1643.55755738958,0.29682109717482,234534,118409
1646.5402750984,0.298127203632806,226503,114011
1649.51872244873,0.301638532652693,218536,109115
1652.49289944057,0.3026770497053,210023,104614
1655.46280607392,0.304133876404308,202065,100313
1658.42844234878,0.304956625828554,193986,96120
1661.38980826515,0.305860222984663,185979,91961
1664.34690382303,0.306401710022664,176935,87380
1667.29972902242,0.306497590387218,167297,82602
1670.24828386331,0.306004365254283,156824,77519
1674.17304753796,0.303890466011874,139836,69459
1677.11163820905,0.302578284226842,125607,62580
1680.04595852164,0.303708425679915,111087,55202
1682.97600847574,0.305310747038209,96856,47953
1685.90178807136,0.301917055724756,82825,41328
1688.82329730848,0.302158057930189,70545,35181
1691.74053618711,0.304317430921814,59541,29546
1694.65350470725,0.30659988740593,50615,24985
1697.56220286889,0.309003051825053,42878,21049
1701.43382430455,0.312956249115081,34813,16935
