***Scan Config Information***,,,,,,,***Reference Scan Information***,,,,,,,,
Scan Config Name:,herbario,,,,,,Scan Config Name:,Local New Reference,,,,,,,
Scan Config Type:,Slew,Num Section:,1,,,,Scan Config Type:,Slew,Num Section:,1,,,,,
Section Config Type:,Column,,,,,,Section Config Type:,Column,,,,,,,
Start Wavelength (nm):,900,,,,,,Start Wavelength (nm):,900,,,,,,,
End Wavelength (nm):,1700,,,,,,End Wavelength (nm):,1700,,,,,,,
Pattern Width (nm):,7.03,,,,,,Pattern Width (nm):,7.03,,,,,,,
Exposure (ms):,0.635,,,,,,Exposure (ms):,0.635,,,,,,,
Digital Resolution:,228,,,,,,Digital Resolution:,228,,,,,,,
Num Repeats:,20,,,,,,Num Repeats:,20,,,,,,,
PGA Gain:,64,(FixedPGA),,,,,PGA Gain:,64,(AutoPGA),,,,,,
System Temp (C):,39.93,,,,,,System Temp (C):,39.51,,,,,,,
Humidity (%):,20.61,,,,,,Humidity (%):,20.7,,,,,,,
Lamp Indicator:,1113,,,,,,Lamp Indicator:,1112,,,,,,,
Data Date-Time:,2023/11/10T17:00:18,,,,,,Data Date-Time:,2023/11/10T16:58:48,,,,,,,
Total Measurement Time in sec:,6.7173024,,,,,,,,,,,,,,
,,,,,,,,,,,,,,,
***General Information***,,,,,,,***Calibration Coefficients***,,,,,,,,
Model Name:,NIR-S-G1,,,,,,Shift Vector Coefficients:,-5.08535400046452,0.0413457073195706,-8.39863846568903E-05,,,,,
Serial Number:,B07R011,(95UB122GC0AB07R011),,,,,Pixel to Wavelength Coefficients:,1794.37724621797,-0.920219689099738,-0.000237242138379873,,,,,
GUI Version:,3.9.4,Revision:,526,,,,Versions (Cal/Ref/Cfg):,1,3,1,,,,,
TIVA Version:,2.4.7,,,,,,***Lamp Usage ***,,,,,,,,
DLPC Version:,2.3.1,,,,,,Total Time(hh:mm:ss):,1hr 19min 55sec ,,,,,,,
UUID:,DE:67:0C:88:67:2B:47:21,,,,,,***Device/Error/Activation Status***,,,,,,,,
Main Board Version:,D,,,,,,Device Status:,0x00000001,Activation Status:,Activated,,,,,
Detector Board Version:,B,,,,,,Error status:,0x00000000,Error Code:,0x00000000000000000000000000000000,,,,,
,,,,,,,,,Error Details:,Not found,,,,,
***Scan Data***,,,,,,,,,,,,,,,
Wavelength (nm),Absorbance (AU),Reference Signal (unitless),Sample Signal (unitless)
901.81429527209,0.177308512697854,86641,57599
905.716563509274,0.172031088895415,93796,63118
909.614561387966,0.170415630083067,101259,68394
913.508288908168,0.169781170766919,110450,74711
917.397746069878,0.170676921707025,121642,82112
921.282932873098,0.168488838918291,135141,91685
925.163849317827,0.167576492333857,151671,103116
929.040495404065,0.165656053369398,170361,116336
932.912871131812,0.164532557116411,189658,129849
938.069395988934,0.16372944176416,213659,146552
941.931807546869,0.163270723999064,229653,157689
945.789948746314,0.162134072003321,243420,167580
949.643819587268,0.160929778000022,255706,176527
953.493420069731,0.160607536944659,267607,184880
957.338750193702,0.160847745915301,278688,192429
961.179809959184,0.159551439417379,289344,200384
965.016599366174,0.159838697823713,299683,207407
968.849118414673,0.159456073665672,309627,214478
973.952501032798,0.159159232191982,322858,223796
977.775055911486,0.159059200931928,332463,230507
981.593340431682,0.159007331441628,341229,236613
985.407354593388,0.158726934739052,349019,242171
989.217098396603,0.157910679990158,355969,247458
993.022571841327,0.157758205686128,362571,252136
996.823774927561,0.158114605481957,368303,255912
1000.6207076553,0.157488974109391,373721,260051
1004.41337002455,0.156835638821769,378546,263805
1008.20176203532,0.156568095005444,382040,266404
1013.24630860312,0.156367293102568,385477,268925
1017.02473644407,0.155381863263538,387538,270977
1020.79889392653,0.154950232780487,389449,272584
1024.5687810505,0.154789687342336,390639,273518
1028.33439781597,0.154573896223792,391133,274000
1032.09574422296,0.154008368047941,391113,274343
1035.85282027145,0.153444142977772,391431,274923
1039.60562596146,0.152953256205929,391360,275184
1043.35416129297,0.152894485550289,391563,275364
1048.34556562178,0.152556166147922,391116,275264
1052.08413678348,0.152097400243727,390757,275302
1055.81843758669,0.151493759436388,390373,275414
1059.54846803141,0.151545520247832,390635,275566
1063.27422811764,0.151303434654111,390678,275750
1066.99571784538,0.151313821244261,390591,275682
1070.71293721462,0.150461682319433,391098,276582
1074.42588622538,0.150426045367482,392050,277278
1078.13456487764,0.150590659009667,393350,278092
1081.83897317142,0.150524686425107,395092,279366
1086.77154144991,0.150329234877959,397217,280995
1090.46598557387,0.149946815933185,399565,282905
1094.15615933934,0.149910971194686,402043,284683
1097.84206274632,0.150610829783326,404833,286197
1101.52369579481,0.15034564135141,407351,288153
1105.20105848481,0.150207281897208,411003,290829
1108.87415081632,0.150292161166522,414234,293058
1112.54297278934,0.150632115643225,417662,295252
1116.20752440387,0.150890863210075,421458,297758
1121.08695044336,0.151025770761281,427016,301591
1124.74153788807,0.152088838455471,431222,303817
1128.3918549743,0.152566800068925,435907,306780
1132.03790170203,0.153364324012684,440919,309738
1135.67967807127,0.153758658318397,445423,312618
1139.31718408202,0.154384252604347,450330,315607
1142.95041973428,0.155105122386145,455736,318866
1146.57938502805,0.156399527021365,460941,321548
1150.20407996333,0.157497424278926,466468,324582
1153.82450454012,0.15869307884094,472011,327536
1158.6450945293,0.15976279110901,479871,332171
1162.25555493627,0.161269180004813,485999,335248
1165.86174498476,0.16264308684577,492703,338799
1169.46366467475,0.163583923345397,499317,342604
1173.06131400625,0.16453212588573,506131,346522
1176.65469297927,0.165613649204077,513351,350591
1180.24380159379,0.166828605021991,520269,354323
1183.82863984982,0.167909610877497,528618,359114
1187.40920774736,0.168761776045289,536311,363626
1192.17665549754,0.169700912701778,546849,369970
1195.74725922527,0.170235680302091,555131,375111
1199.3135925945,0.170488670288223,563809,380753
1202.87565560525,0.170806395681709,572114,386079
1206.43344825751,0.170725221671057,580298,391675
1209.98697055127,0.170574250923573,589507,398029
1213.53622248654,0.169912282251612,597970,404359
1217.08120406333,0.168937262088643,606354,410950
1220.62191528162,0.167881289010851,614783,417677
1224.15835614142,0.166743136513821,623145,424469
1228.86696784128,0.165274014559532,633812,433198
1232.39344453127,0.164516268731467,641837,439449
1235.91565086277,0.163402545494659,649339,445727
1239.43358683578,0.162957001860376,656235,450923
1242.94725245029,0.162627739819765,663381,456179
1246.45664770632,0.162567186889726,670102,460865
1249.96177260386,0.161492869188848,675362,465633
1253.4626271429,0.161548233161213,680869,469370
1256.95921132345,0.160834975825571,686512,474038
1261.61468078432,0.160640313913596,695809,480673
1265.10130079506,0.160304956703707,703009,486022
1268.58365044731,0.160581363148035,709812,490413
1272.06172974107,0.160618342020665,716350,494888
1275.53553867634,0.160420768492358,722017,499030
1279.00507725312,0.159878977185428,726949,503066
1282.4703454714,0.159621958256117,732157,506970
1285.9313433312,0.159427886066818,736966,510528
1289.38807083251,0.159400955655287,740897,513283
1292.84052797532,0.158908456630369,744289,516218
1297.43716138587,0.159312166768437,749543,519379
1300.87965435887,0.159041781880537,752473,521734
1304.31787697338,0.159221436044514,755204,523411
1307.7518292294,0.159327915370865,757541,524902
1311.18151112693,0.159553719039099,759493,525981
1314.60692266597,0.15985279632464,761334,526893
1318.02806384652,0.160596551161385,762665,526911
1321.44493466858,0.160657659876473,763182,527194
1324.85753513215,0.161528542908093,764360,526950
1329.4010263037,0.162603958802623,764942,526047
1332.80366259745,0.163799460252737,764894,524568
1336.20202853272,0.164875190968396,764477,522985
1339.59612410949,0.166429922850954,764025,520808
1342.98594932777,0.168032271133432,763171,518310
1346.37150418756,0.169809037316775,761128,514812
1349.75278868886,0.171900667123891,759548,511275
1353.12980283167,0.174002960258955,756940,507059
1356.50254661599,0.176022506047952,754790,503273
1359.87102004182,0.178064856646546,751974,499043
1364.35567516305,0.180719907637209,748873,493956
1367.71418441907,0.182667545531784,746953,490485
1371.06842331659,0.184841501697468,744013,486115
1374.41839185563,0.186747957334136,739397,480983
1377.76409003617,0.189214774293025,733538,474469
1381.10551785823,0.192170210432909,727408,467313
1384.44267532179,0.195260843107235,721463,460207
1387.77556242686,0.199406885569716,715948,452350
1391.10417917344,0.203869093434853,710898,444568
1395.53569205567,0.211340357307464,704909,433304
1398.85434463244,0.218671685314502,701008,423693
1402.16872685072,0.227516888423335,697820,413263
1405.47883871051,0.237826815516975,694834,401841
1408.7846802118,0.248732714392073,691955,390252
1412.08625135461,0.260025184680918,689521,378898
1415.38355213892,0.27177615432726,687099,367488
1418.67658256475,0.282744432948962,684859,357155
1421.96534263208,0.293545815060344,683281,347579
1425.24983234092,0.303276006904868,682010,339246
1429.62250917284,0.314289312362886,680028,329790
1432.89703471187,0.321063766539338,679367,324370
1436.16728989241,0.327267024174857,677995,319124
1439.43327471445,0.331665361657814,676934,315414
1442.69498917801,0.335037995026125,676006,312545
1445.95243328308,0.33759126303283,675471,310467
1449.20560702965,0.33933549724307,674028,308562
1452.45451041774,0.340416270998033,671919,306832
1455.69914344733,0.340781493097517,669920,305662
1460.01867804025,0.340613364789414,666955,304427
1463.25334690003,0.340952720882443,664751,303184
1466.48374540132,0.339494981569001,661645,302782
1469.70987354412,0.338537270512053,658356,301942
1472.93173132843,0.337335951449916,655435,301435
1476.14931875425,0.335026881964394,652193,301543
1479.36263582158,0.333657482652733,648402,300737
1482.57168253042,0.33125266078182,644427,300553
1485.77645888076,0.329490363060177,640425,299901
1488.97696487262,0.327496106628844,636477,299424
1493.23766341522,0.324309902228272,629936,298529
1496.42820523726,0.322473374106118,625269,297573
1499.61447670082,0.320280793588287,620247,296677
1502.79647780588,0.318061696124083,614802,295579
1505.97420855245,0.315852890820324,609237,294397
1509.14766894053,0.313696137855049,603437,293046
1512.31685897012,0.311748777183806,597978,291700
1515.48177864122,0.309499278069514,590918,289753
1518.64242795382,0.307061768355531,585021,288476
1522.84998425743,0.304877951554389,576118,285518
1526.00066940022,0.303457129532054,569522,283174
1529.14708418453,0.301988843491788,562258,280509
1532.28922861034,0.300460334635389,554644,277686
1535.42710267766,0.299388018636254,546998,274535
1538.5607063865,0.298880802436322,539008,270841
1541.69003973684,0.298044895402893,530511,267085
1544.81510272869,0.296929882587318,521951,263451
1547.93589536205,0.296278119047583,513558,259604
1551.05241763692,0.295104488586854,504823,255879
1555.2011378902,0.294679632880936,493154,250209
1558.30769599526,0.293994425451433,484511,246212
1561.40998374183,0.293474215071485,476010,242182
1564.5080011299,0.293156587149507,466861,237701
1567.60174815948,0.292011278606883,457455,233527
1570.69122483058,0.291664536240327,447957,228861
1573.77643114318,0.291494622145867,438627,224182
1576.85736709729,0.290675300264221,429026,219689
1579.93403269291,0.290039581821581,419403,215076
1584.0296107072,0.289288489787002,406866,209008
1587.09631213301,0.288177425867877,397318,204626
1590.15874320033,0.286961843396004,388112,200445
1593.21690390916,0.286183467938774,378561,195863
1596.27079425949,0.284893909977235,369582,191786
1599.32041425134,0.282966013428759,360599,187957
1602.36576388469,0.281650060031809,351203,183615
1605.40684315956,0.281029676935889,342462,179301
1608.44365207593,0.278690910013102,333191,175389
1611.47619063381,0.278188929677169,324123,170813
1615.51293259778,0.277395808898611,312296,164881
1618.53550698585,0.276278725839981,303646,160727
1621.55381101543,0.275884124932469,294852,156214
1624.56784468652,0.275510951959213,286680,152015
1627.57760799912,0.273931841006596,277866,147878
1630.58310095323,0.273143061499176,269201,143527
1633.58432354884,0.274043676620136,260757,138737
1636.58127578597,0.273808503112066,252559,134448
1639.5739576646,0.274527591701077,244277,129824
1643.55755738958,0.275404220732693,233362,123773
1646.5402750984,0.277459836218447,225310,118938
1649.51872244873,0.279343316845247,217252,114188
1652.49289944057,0.281692109750033,209407,109471
1655.46280607392,0.283505955246125,201405,104849
1658.42844234878,0.285333083892075,193753,100442
1661.38980826515,0.285708951902707,185615,96140
1664.34690382303,0.285865477935799,177265,91782
1667.29972902242,0.285252169502388,167929,87071
1670.24828386331,0.286342400272163,158324,81885
1674.17304753796,0.287185728978532,142539,73578
1677.11163820905,0.287458376804669,129319,66712
1680.04595852164,0.288850264924186,115077,59175
1682.97600847574,0.287840032228495,100918,52015
1685.90178807136,0.292896071623817,87276,44463
1688.82329730848,0.291599606621553,74436,38035
1691.74053618711,0.292654047007712,63060,32144
1694.65350470725,0.302557486623464,53546,26679
1697.56220286889,0.298068052101746,45445,22878
1701.43382430455,0.303503333594576,36803,18297
