***Scan Config Information***,,,,,,,***Reference Scan Information***,,,,,,,,
Scan Config Name:,herbario,,,,,,Scan Config Name:,Local New Reference,,,,,,,
Scan Config Type:,Slew,Num Section:,1,,,,Scan Config Type:,Slew,Num Section:,1,,,,,
Section Config Type:,Column,,,,,,Section Config Type:,Column,,,,,,,
Start Wavelength (nm):,900,,,,,,Start Wavelength (nm):,900,,,,,,,
End Wavelength (nm):,1700,,,,,,End Wavelength (nm):,1700,,,,,,,
Pattern Width (nm):,7.03,,,,,,Pattern Width (nm):,7.03,,,,,,,
Exposure (ms):,0.635,,,,,,Exposure (ms):,0.635,,,,,,,
Digital Resolution:,228,,,,,,Digital Resolution:,228,,,,,,,
Num Repeats:,20,,,,,,Num Repeats:,20,,,,,,,
PGA Gain:,64,(FixedPGA),,,,,PGA Gain:,64,(AutoPGA),,,,,,
System Temp (C):,33.69,,,,,,System Temp (C):,32.9,,,,,,,
Humidity (%):,53.16,,,,,,Humidity (%):,54.79,,,,,,,
Lamp Indicator:,1058,,,,,,Lamp Indicator:,1054,,,,,,,
Data Date-Time:,2023/11/10T11:38:10,,,,,,Data Date-Time:,2023/11/10T11:35:47,,,,,,,
Total Measurement Time in sec:,6.8378938,,,,,,,,,,,,,,
,,,,,,,,,,,,,,,
***General Information***,,,,,,,***Calibration Coefficients***,,,,,,,,
Model Name:,NIR-S-G1,,,,,,Shift Vector Coefficients:,-5.08535400046452,0.0413457073195706,-8.39863846568903E-05,,,,,
Serial Number:,B07R011,(95UB122GC0AB07R011),,,,,Pixel to Wavelength Coefficients:,1794.37724621797,-0.920219689099738,-0.000237242138379873,,,,,
GUI Version:,3.9.4,Revision:,526,,,,Versions (Cal/Ref/Cfg):,1,3,1,,,,,
TIVA Version:,2.4.7,,,,,,***Lamp Usage ***,,,,,,,,
DLPC Version:,2.3.1,,,,,,Total Time(hh:mm:ss):,47min 48sec ,,,,,,,
UUID:,DE:67:0C:88:67:2B:47:21,,,,,,***Device/Error/Activation Status***,,,,,,,,
Main Board Version:,D,,,,,,Device Status:,0x00000001,Activation Status:,Activated,,,,,
Detector Board Version:,B,,,,,,Error status:,0x00000000,Error Code:,0x00000000000000000000000000000000,,,,,
,,,,,,,,,Error Details:,Not found,,,,,
***Scan Data***,,,,,,,,,,,,,,,
Wavelength (nm),Absorbance (AU),Reference Signal (unitless),Sample Signal (unitless)
901.81429527209,0.161892840329745,87021,59942
905.716563509274,0.163341948942316,94876,65135
909.614561387966,0.162476366726189,102713,70656
913.508288908168,0.160645909257265,112045,77401
917.397746069878,0.159569101823584,123786,85724
921.282932873098,0.159429728667449,138609,96020
925.163849317827,0.1591660492546,156274,108323
929.040495404065,0.158776190024411,175944,122067
932.912871131812,0.157417759470334,195436,136015
938.069395988934,0.155990686498636,218815,152787
941.931807546869,0.155799519025009,234016,163473
945.789948746314,0.154646435182455,247343,173242
949.643819587268,0.154245881672998,259385,181844
953.493420069731,0.153387221558339,270512,190020
957.338750193702,0.153047727678385,281497,197891
961.179809959184,0.151765931264605,292018,205894
965.016599366174,0.151770980140684,302185,213060
968.849118414673,0.151938886162525,312380,220163
973.952501032798,0.152011346811931,325949,229688
977.775055911486,0.151667321789609,335672,236727
981.593340431682,0.151595020204124,344192,242776
985.407354593388,0.151141531746937,352268,248732
989.217098396603,0.151596352745452,359981,253912
993.022571841327,0.150669854140222,365764,258542
996.823774927561,0.150861808988879,371488,262472
1000.6207076553,0.150261262433743,377113,266815
1004.41337002455,0.149859140140185,381582,270227
1008.20176203532,0.149620330238895,384964,272772
1013.24630860312,0.149441321100297,388311,275257
1017.02473644407,0.148874055052897,390481,277157
1020.79889392653,0.148973115180276,392488,278518
1024.5687810505,0.148562835605156,393407,279434
1028.33439781597,0.148168347149196,393943,280069
1032.09574422296,0.147929102908547,393667,280027
1035.85282027145,0.147382197061548,394431,280924
1039.60562596146,0.147339450843353,394256,280827
1043.35416129297,0.147389216380105,394377,280881
1048.34556562178,0.147412867186886,393966,280573
1052.08413678348,0.147209247327799,393648,280478
1055.81843758669,0.147119173127602,393231,280239
1059.54846803141,0.14694831673414,393326,280417
1063.27422811764,0.147149095157585,393644,280514
1066.99571784538,0.146990364153141,393524,280531
1070.71293721462,0.147056273990161,394180,280956
1074.42588622538,0.146651072491939,395144,281906
1078.13456487764,0.146612933124635,396274,282737
1081.83897317142,0.146823389925074,398167,283950
1086.77154144991,0.146301490317222,400186,285733
1090.46598557387,0.146797956577414,402761,287243
1094.15615933934,0.146461409549493,405303,289280
1097.84206274632,0.146213085695322,407526,291033
1101.52369579481,0.146288392570554,410654,293216
1105.20105848481,0.146835176654595,414032,295256
1108.87415081632,0.14643683210579,417571,298053
1112.54297278934,0.147054498424106,420932,300025
1116.20752440387,0.147181740157833,424627,302570
1121.08695044336,0.147696092017809,430069,306085
1124.74153788807,0.147870677121663,434307,308977
1128.3918549743,0.148550079173882,439095,311895
1132.03790170203,0.148727771652757,443783,315096
1135.67967807127,0.148735568243203,448474,318421
1139.31718408202,0.149402345343815,453440,321453
1142.95041973428,0.149805718234623,459180,325220
1146.57938502805,0.150145596558946,464047,328410
1150.20407996333,0.150788834456399,469174,331547
1153.82450454012,0.151586116923769,475008,335054
1158.6450945293,0.152634285750391,483270,340060
1162.25555493627,0.152916386842261,489386,344140
1165.86174498476,0.153401066859757,495721,348206
1169.46366467475,0.153693828893544,502362,352633
1173.06131400625,0.154354755593954,509549,357134
1176.65469297927,0.154618314503546,516474,361768
1180.24380159379,0.155591700524754,523744,366039
1183.82863984982,0.155184411250669,531740,371976
1187.40920774736,0.155963732336014,539758,376908
1192.17665549754,0.156257566991755,550520,384163
1195.74725922527,0.156230433526524,558566,389802
1199.3135925945,0.156812530375472,567349,395401
1202.87565560525,0.157118914817226,575921,401092
1206.43344825751,0.156624723976231,584101,407252
1209.98697055127,0.157105772785545,593148,413102
1213.53622248654,0.156742364989363,601769,419457
1217.08120406333,0.156259133096213,610277,425861
1220.62191528162,0.156417122096858,619099,431860
1224.15835614142,0.155886583231874,627544,438286
1228.86696784128,0.155277273268307,638197,446352
1232.39344453127,0.155143739398129,646314,452168
1235.91565086277,0.154982032420922,654012,457724
1239.43358683578,0.154963606646121,661261,462817
1242.94725245029,0.154452226343041,667898,468013
1246.45664770632,0.154612801928824,674999,472814
1249.96177260386,0.154176419333467,680274,476988
1253.4626271429,0.154064701009122,685962,481100
1256.95921132345,0.153635351373206,691412,485402
1261.61468078432,0.153643532492717,700738,491940
1265.10130079506,0.153779549659209,708327,497112
1268.58365044731,0.153758258374883,715006,501824
1272.06172974107,0.153474668099288,721475,506695
1275.53553867634,0.153365144925208,727279,510900
1279.00507725312,0.153422642272321,732569,514548
1282.4703454714,0.153368231112533,737871,518337
1285.9313433312,0.152961791850558,742332,521959
1289.38807083251,0.153025323008597,746439,524770
1292.84052797532,0.152938044128978,749978,527364
1297.43716138587,0.15304577203116,755147,530867
1300.87965435887,0.153110492279121,758536,533170
1304.31787697338,0.153096131040686,760891,534843
1307.7518292294,0.153267446048033,763178,536239
1311.18151112693,0.153449555632117,765144,537395
1314.60692266597,0.153819506239256,767194,538376
1318.02806384652,0.153995626891403,768141,538822
1321.44493466858,0.154413029150166,769175,539029
1324.85753513215,0.154754132606076,770005,539187
1329.4010263037,0.15559868498434,770528,538505
1332.80366259745,0.156235707112271,770249,537521
1336.20202853272,0.157268186023405,769968,536049
1339.59612410949,0.158397560662259,769830,534561
1342.98594932777,0.159312123364893,768568,532562
1346.37150418756,0.160754932584968,767038,529739
1349.75278868886,0.161714632737437,764200,526614
1353.12980283167,0.163040085638412,761025,522828
1356.50254661599,0.164125411977382,758391,519718
1359.87102004182,0.165468899282824,755196,515930
1364.35567516305,0.16693773836038,752097,512078
1367.71418441907,0.167920827481196,750532,509857
1371.06842331659,0.169005410492606,747921,506816
1374.41839185563,0.170282867658743,743270,502185
1377.76409003617,0.171926347619964,737428,496356
1381.10551785823,0.173925658364472,731056,489807
1384.44267532179,0.175839472176327,725089,483673
1387.77556242686,0.17859824859515,719606,476976
1391.10417917344,0.181884781642731,714410,469962
1395.53569205567,0.18731346590972,708767,460458
1398.85434463244,0.192312233834423,704763,452617
1402.16872685072,0.198305454584789,701489,444340
1405.47883871051,0.205097448995746,698880,435818
1408.7846802118,0.212207335784772,696203,427099
1412.08625135461,0.219538217013423,693552,418351
1415.38355213892,0.226505872275309,691066,410217
1418.67658256475,0.233016517706003,689318,403091
1421.96534263208,0.238691098490937,687933,397059
1425.24983234092,0.243859188023211,686490,391539
1429.62250917284,0.249399492663792,684306,385346
1432.89703471187,0.253414508872718,683591,381401
1436.16728989241,0.256141305438555,682116,378196
1439.43327471445,0.259015111918239,681394,375304
1442.69498917801,0.260818362354025,680468,373241
1445.95243328308,0.262330301805691,679709,371529
1449.20560702965,0.263489032759895,678711,369995
1452.45451041774,0.263911650122939,676702,368541
1455.69914344733,0.264133730752577,674388,367093
1460.01867804025,0.263705665034111,671747,366016
1463.25334690003,0.263850801032912,669337,364581
1466.48374540132,0.263115835623432,666103,363434
1469.70987354412,0.262038309438124,662668,362458
1472.93173132843,0.260734883967796,659470,361793
1476.14931875425,0.25933981335137,656432,361285
1479.36263582158,0.257921039831711,652739,360428
1482.57168253042,0.255695996698696,648643,360006
1485.77645888076,0.25442443207051,644713,358874
1488.97696487262,0.252792620079353,640568,357909
1493.23766341522,0.250458149612325,634154,356235
1496.42820523726,0.249306249881508,629527,354575
1499.61447670082,0.247365750163998,624230,353166
1502.79647780588,0.245646288076432,618936,351560
1505.97420855245,0.244205195068286,613299,349516
1509.14766894053,0.242784088561798,607759,347494
1512.31685897012,0.241242732309559,601580,345184
1515.48177864122,0.240339931061082,594955,342093
1518.64242795382,0.238638085591674,588616,339777
1522.84998425743,0.237150141246725,579975,335938
1526.00066940022,0.235754540787059,573103,333026
1529.14708418453,0.235090501179318,565954,329375
1532.28922861034,0.233937964493164,558211,325732
1535.42710267766,0.233445692071443,550420,321550
1538.5607063865,0.232827549485296,542528,317391
1541.69003973684,0.232008371165127,533852,312905
1544.81510272869,0.231186206540322,525462,308571
1547.93589536205,0.230313402333805,516513,303926
1551.05241763692,0.230156257953172,508226,299158
1555.2011378902,0.228910661491597,496244,292944
1558.30769599526,0.228638461746057,487763,288118
1561.40998374183,0.227979259581086,478852,283284
1564.5080011299,0.227599681956754,469920,278243
1567.60174815948,0.227583321007741,460325,272572
1570.69122483058,0.226699985789757,450747,267444
1573.77643114318,0.225858098965917,441270,262329
1576.85736709729,0.225670019558049,431611,256698
1579.93403269291,0.224788366735231,421740,251337
1584.0296107072,0.224718789745429,409207,243907
1587.09631213301,0.223772287305167,399534,238661
1590.15874320033,0.222754557123391,390684,233922
1593.21690390916,0.221930942686387,380472,228240
1596.27079425949,0.221015078815751,371596,223386
1599.32041425134,0.220018678033787,362320,218310
1602.36576388469,0.219383742787936,353067,213046
1605.40684315956,0.217939480459663,343727,208101
1608.44365207593,0.217141059400422,334501,202888
1611.47619063381,0.216710914010343,325699,197745
1615.51293259778,0.216089236897334,313406,190554
1618.53550698585,0.215052302415003,304750,185734
1621.55381101543,0.215070644931657,296045,180421
1624.56784468652,0.214213331884918,287183,175366
1627.57760799912,0.213831344880447,278532,170233
1630.58310095323,0.213343820094303,269868,165123
1633.58432354884,0.212327147295773,261161,160170
1636.58127578597,0.213179071702157,252770,154720
1639.5739576646,0.21434926986682,244362,149171
1643.55755738958,0.215006416645292,233315,142212
1646.5402750984,0.216969416126385,225105,136589
1649.51872244873,0.218469459171068,216861,131133
1652.49289944057,0.219705737709869,208356,125632
1655.46280607392,0.22112577023604,199867,120120
1658.42844234878,0.221498765033406,191021,114705
1661.38980826515,0.222216872788809,181759,108963
1664.34690382303,0.221277685126575,171000,102735
1667.29972902242,0.220395073291983,159070,95762
1670.24828386331,0.217088710482219,145968,88546
1674.17304753796,0.213933508586219,125757,76842
1677.11163820905,0.211276961916356,109884,67555
1680.04595852164,0.210837883580191,94674,58263
1682.97600847574,0.208527870691405,80648,49896
1685.90178807136,0.20591000700966,68268,42492
1688.82329730848,0.207388085865173,57811,35861
1691.74053618711,0.211680342598303,48952,30067
1694.65350470725,0.208283197051809,41445,25656
1697.56220286889,0.209974878436086,35188,21698
1701.43382430455,0.213490934640089,28820,17628
