***Scan Config Information***,,,,,,,***Reference Scan Information***,,,,,,,,
Scan Config Name:,herbario,,,,,,Scan Config Name:,Local New Reference,,,,,,,
Scan Config Type:,Slew,Num Section:,1,,,,Scan Config Type:,Slew,Num Section:,1,,,,,
Section Config Type:,Column,,,,,,Section Config Type:,Column,,,,,,,
Start Wavelength (nm):,900,,,,,,Start Wavelength (nm):,900,,,,,,,
End Wavelength (nm):,1700,,,,,,End Wavelength (nm):,1700,,,,,,,
Pattern Width (nm):,7.03,,,,,,Pattern Width (nm):,7.03,,,,,,,
Exposure (ms):,0.635,,,,,,Exposure (ms):,0.635,,,,,,,
Digital Resolution:,228,,,,,,Digital Resolution:,228,,,,,,,
Num Repeats:,20,,,,,,Num Repeats:,20,,,,,,,
PGA Gain:,64,(FixedPGA),,,,,PGA Gain:,64,(AutoPGA),,,,,,
System Temp (C):,41.67,,,,,,System Temp (C):,41.42,,,,,,,
Humidity (%):,20.48,,,,,,Humidity (%):,20.47,,,,,,,
Lamp Indicator:,1119,,,,,,Lamp Indicator:,1128,,,,,,,
Data Date-Time:,2023/11/10T16:17:14,,,,,,Data Date-Time:,2023/11/10T16:15:07,,,,,,,
Total Measurement Time in sec:,6.7519348,,,,,,,,,,,,,,
,,,,,,,,,,,,,,,
***General Information***,,,,,,,***Calibration Coefficients***,,,,,,,,
Model Name:,NIR-S-G1,,,,,,Shift Vector Coefficients:,-5.08535400046452,0.0413457073195706,-8.39863846568903E-05,,,,,
Serial Number:,B07R011,(95UB122GC0AB07R011),,,,,Pixel to Wavelength Coefficients:,1794.37724621797,-0.920219689099738,-0.000237242138379873,,,,,
GUI Version:,3.9.4,Revision:,526,,,,Versions (Cal/Ref/Cfg):,1,3,1,,,,,
TIVA Version:,2.4.7,,,,,,***Lamp Usage ***,,,,,,,,
DLPC Version:,2.3.1,,,,,,Total Time(hh:mm:ss):,1hr 18min 24sec ,,,,,,,
UUID:,DE:67:0C:88:67:2B:47:21,,,,,,***Device/Error/Activation Status***,,,,,,,,
Main Board Version:,D,,,,,,Device Status:,0x00000001,Activation Status:,Activated,,,,,
Detector Board Version:,B,,,,,,Error status:,0x00000000,Error Code:,0x00000000000000000000000000000000,,,,,
,,,,,,,,,Error Details:,Not found,,,,,
***Scan Data***,,,,,,,,,,,,,,,
Wavelength (nm),Absorbance (AU),Reference Signal (unitless),Sample Signal (unitless)
901.81429527209,0.560885388512018,86196,23692
905.716563509274,0.55834631348149,93376,25816
909.614561387966,0.554185641093354,101184,28244
913.508288908168,0.553861774623271,109940,30711
917.397746069878,0.545824876739201,121127,34468
921.282932873098,0.544847564477771,134389,38328
925.163849317827,0.543115656446985,150317,43042
929.040495404065,0.537271574695217,168806,48991
932.912871131812,0.534028507776384,188060,54988
938.069395988934,0.528740726786572,212053,62763
941.931807546869,0.52634742147482,228239,67927
945.789948746314,0.521698976151334,242138,72839
949.643819587268,0.519441384839271,254964,77097
953.493420069731,0.515132773700029,266396,81357
957.338750193702,0.512188098439908,277644,85369
961.179809959184,0.507767099994679,288614,89650
965.016599366174,0.503889586365017,298585,93579
968.849118414673,0.500287982546127,308650,97539
973.952501032798,0.496903328156694,321752,102475
977.775055911486,0.493230399772721,331446,106459
981.593340431682,0.490407705525198,339828,109863
985.407354593388,0.48498588748937,347654,113805
989.217098396603,0.483675066725695,355335,116671
993.022571841327,0.479313783632864,361415,119865
996.823774927561,0.476442547516855,367007,122527
1000.6207076553,0.472427300528799,372141,125395
1004.41337002455,0.469229847311847,377112,128009
1008.20176203532,0.465833482379981,380415,130144
1013.24630860312,0.461545889535826,383711,132574
1017.02473644407,0.458965695664372,385961,134146
1020.79889392653,0.454927383531322,387896,136078
1024.5687810505,0.452063493471718,389042,137383
1028.33439781597,0.448903334020891,389713,138625
1032.09574422296,0.44727834625017,389896,139210
1035.85282027145,0.443651019052937,390336,140536
1039.60562596146,0.440378775229881,390204,141551
1043.35416129297,0.437257182285178,390201,142571
1048.34556562178,0.433335455640968,389430,143580
1052.08413678348,0.430603784929913,389449,144493
1055.81843758669,0.42852314732756,388894,144980
1059.54846803141,0.425177672840458,389072,146168
1063.27422811764,0.423294066406537,388875,146729
1066.99571784538,0.420201120575612,388860,147772
1070.71293721462,0.418404262157825,389841,148759
1074.42588622538,0.415591956029946,390759,150078
1078.13456487764,0.412671099326821,391895,151530
1081.83897317142,0.410394282070217,393548,152969
1086.77154144991,0.407179391557402,395919,155034
1090.46598557387,0.40538058475004,397960,156480
1094.15615933934,0.402210235459049,400332,158566
1097.84206274632,0.399761509736403,402831,160458
1101.52369579481,0.398068477576696,405725,162242
1105.20105848481,0.395832105244744,409214,164482
1108.87415081632,0.393381267835135,412569,166769
1112.54297278934,0.391892200272601,415888,168688
1116.20752440387,0.38957180317738,419859,171211
1121.08695044336,0.387939045304741,425344,174101
1124.74153788807,0.385825472081591,429413,176624
1128.3918549743,0.384311429093118,434242,179234
1132.03790170203,0.382626746209739,438838,181835
1135.67967807127,0.381193836537086,443815,184505
1139.31718408202,0.379087228781187,448777,187475
1142.95041973428,0.378071160148799,454100,190143
1146.57938502805,0.376491133969754,458928,192865
1150.20407996333,0.375737011670736,464524,195556
1153.82450454012,0.373460875395641,470267,199014
1158.6450945293,0.372064758075209,478257,203047
1162.25555493627,0.370964561471445,484053,206029
1165.86174498476,0.370489892298279,490647,209064
1169.46366467475,0.368791760671907,497300,212729
1173.06131400625,0.36807644975307,504083,215986
1176.65469297927,0.366739873148391,511543,219858
1180.24380159379,0.365843742988584,518253,223202
1183.82863984982,0.365023081195961,526547,227203
1187.40920774736,0.363629359143118,534031,231173
1192.17665549754,0.362783583476854,544935,236353
1195.74725922527,0.361034066187934,552685,240682
1199.3135925945,0.360317758929916,561545,244944
1202.87565560525,0.358690191135898,569800,249478
1206.43344825751,0.358081299145653,577883,253372
1209.98697055127,0.357014283720734,587090,258042
1213.53622248654,0.355922398171196,595463,262381
1217.08120406333,0.35400315750003,603755,267213
1220.62191528162,0.352732994600862,612213,271750
1224.15835614142,0.351507287309654,620507,276210
1228.86696784128,0.350053371228861,631285,281950
1232.39344453127,0.348577534733238,639207,286460
1235.91565086277,0.347632334762755,646561,290387
1239.43358683578,0.346416602212901,653253,294215
1242.94725245029,0.345461844331116,660328,298056
1246.45664770632,0.343970671215574,666885,302051
1249.96177260386,0.343359160016993,672702,305115
1253.4626271429,0.342153686127915,677884,308320
1256.95921132345,0.341121685731213,683634,311675
1261.61468078432,0.340233517541623,692753,316479
1265.10130079506,0.338755949790769,699942,320853
1268.58365044731,0.337956665178111,706433,324425
1272.06172974107,0.336993334967352,712798,328075
1275.53553867634,0.336184792045148,718453,331294
1279.00507725312,0.335304358289384,723798,334436
1282.4703454714,0.334478665657646,728653,337320
1285.9313433312,0.333607289407394,733468,340231
1289.38807083251,0.332617027686866,737564,342912
1292.84052797532,0.331799837148815,740776,345054
1297.43716138587,0.330915746393041,745502,347963
1300.87965435887,0.329715935062708,748823,350480
1304.31787697338,0.329497246486328,751393,351860
1307.7518292294,0.328896457646371,754099,353616
1311.18151112693,0.328205097393369,755793,354975
1314.60692266597,0.327509513347572,757585,356387
1318.02806384652,0.327310083196276,758954,357195
1321.44493466858,0.326664294980052,759880,358163
1324.85753513215,0.32610068866971,760490,358916
1329.4010263037,0.325329319867445,761080,359833
1332.80366259745,0.325129724837675,760910,359918
1336.20202853272,0.324662789099609,760709,360210
1339.59612410949,0.324629287887396,760285,360037
1342.98594932777,0.324387345110319,759125,359688
1346.37150418756,0.324175400189496,757259,358979
1349.75278868886,0.324526356815269,755513,357862
1353.12980283167,0.324539878958645,752661,356500
1356.50254661599,0.323936685706441,750539,355989
1359.87102004182,0.324056561774374,747644,354518
1364.35567516305,0.324093741318944,744827,353152
1367.71418441907,0.324230119094242,742890,352123
1371.06842331659,0.324365883508109,739944,350617
1374.41839185563,0.324293832406815,735215,348434
1377.76409003617,0.324749903137546,729243,345241
1381.10551785823,0.325014915217758,723060,342105
1384.44267532179,0.325920035083794,717378,338710
1387.77556242686,0.327527616546011,712024,334940
1391.10417917344,0.328269609206793,706900,331962
1395.53569205567,0.330610384780201,701086,327462
1398.85434463244,0.332756787995726,697412,324140
1402.16872685072,0.334929946481756,693872,320885
1405.47883871051,0.337711727301969,690951,317494
1408.7846802118,0.340598175934546,688375,314215
1412.08625135461,0.343775662379576,685483,310614
1415.38355213892,0.346941354802999,682853,307175
1418.67658256475,0.349624103675189,681112,304505
1421.96534263208,0.351932566192323,679606,302221
1425.24983234092,0.354530955661777,678255,299821
1429.62250917284,0.356564195226049,676299,297560
1432.89703471187,0.35822905896777,675764,296187
1436.16728989241,0.358806777300977,673986,295015
1439.43327471445,0.358963030446105,672903,294435
1442.69498917801,0.360171446448288,672312,293359
1445.95243328308,0.35984976655678,671631,293279
1449.20560702965,0.359497924072772,670213,292897
1452.45451041774,0.359404866623175,668635,292270
1455.69914344733,0.359471615904104,666333,291219
1460.01867804025,0.358289655912331,663251,290662
1463.25334690003,0.357982955645336,660840,289810
1466.48374540132,0.357683471416167,657707,288635
1469.70987354412,0.357381067298755,654922,287613
1472.93173132843,0.356453463901075,651925,286909
1476.14931875425,0.355630905271679,648521,285952
1479.36263582158,0.354502013584614,644736,285023
1482.57168253042,0.354217174784136,640884,283506
1485.77645888076,0.353263424767015,636821,282328
1488.97696487262,0.352810531437739,633041,280945
1493.23766341522,0.351670596850559,626570,278804
1496.42820523726,0.350951802111482,621686,277089
1499.61447670082,0.350137160105548,617173,275594
1502.79647780588,0.349296042243689,611645,273655
1505.97420855245,0.347802271210681,605805,271976
1509.14766894053,0.347098336788168,600354,269966
1512.31685897012,0.346129356474295,594332,267855
1515.48177864122,0.345100239983116,587927,265597
1518.64242795382,0.343630616545037,581672,263662
1522.84998425743,0.342987531505118,572870,260057
1526.00066940022,0.342354580184854,566255,257429
1529.14708418453,0.341642975266074,559392,254726
1532.28922861034,0.341200752860556,551684,251472
1535.42710267766,0.340521117719616,543742,248240
1538.5607063865,0.339845132273023,535793,244992
1541.69003973684,0.338485522829179,527229,241832
1544.81510272869,0.338189430326916,519179,238302
1547.93589536205,0.338576179872945,510688,234196
1551.05241763692,0.338248643227373,502060,230413
1555.2011378902,0.337891059243959,490663,225368
1558.30769599526,0.336857982030513,481791,221820
1561.40998374183,0.336706507006021,473229,217954
1564.5080011299,0.335879572411652,464278,214239
1567.60174815948,0.335072381353728,454703,210211
1570.69122483058,0.335078991460794,445534,205969
1573.77643114318,0.335055634929846,436008,201576
1576.85736709729,0.33410909148643,426540,197629
1579.93403269291,0.334076909465399,416963,193206
1584.0296107072,0.333510430953424,404298,187582
1587.09631213301,0.333143354816059,394817,183338
1590.15874320033,0.332402463781559,386065,179580
1593.21690390916,0.332288946577083,376387,175124
1596.27079425949,0.331590843934856,367652,171335
1599.32041425134,0.331071450154018,358496,167268
1602.36576388469,0.329838779575966,349504,163536
1605.40684315956,0.329813887521821,340331,159253
1608.44365207593,0.328628585978374,331211,155409
1611.47619063381,0.328688100986414,322579,151338
1615.51293259778,0.328154406318704,310525,145862
1618.53550698585,0.327998072812065,302005,141911
1621.55381101543,0.326932046049181,293361,138188
1624.56784468652,0.327736749701791,284766,133891
1627.57760799912,0.327041059930885,276222,130082
1630.58310095323,0.326208721940594,267631,126278
1633.58432354884,0.325883628571656,259309,122443
1636.58127578597,0.325913515361944,251069,118544
1639.5739576646,0.325516514452001,242894,114789
1643.55755738958,0.325261408943407,232112,109758
1646.5402750984,0.32599210567414,224288,105880
1649.51872244873,0.324731625223886,216239,102377
1652.49289944057,0.325207089223169,208371,98544
1655.46280607392,0.32648409158283,200788,94679
1658.42844234878,0.325560536605706,193033,91216
1661.38980826515,0.326314101377162,185213,87369
1664.34690382303,0.325824313587016,177197,83682
1667.29972902242,0.327958417888676,168641,79251
1670.24828386331,0.326670139693919,159551,75202
1674.17304753796,0.329036160394195,145025,67984
1677.11163820905,0.32952823995477,132713,62142
1680.04595852164,0.329489110764337,119331,55881
1682.97600847574,0.328850202516337,105641,49543
1685.90178807136,0.330662471990317,91880,42910
1688.82329730848,0.329936189373141,78907,36913
1691.74053618711,0.328942263877851,67118,31470
1694.65350470725,0.330555408390066,56797,26532
1697.56220286889,0.330487662225035,48201,22520
1701.43382430455,0.329070698314603,38672,18127
