***Scan Config Information***,,,,,,,***Reference Scan Information***,,,,,,,,
Scan Config Name:,herbario,,,,,,Scan Config Name:,Local New Reference,,,,,,,
Scan Config Type:,Slew,Num Section:,1,,,,Scan Config Type:,Slew,Num Section:,1,,,,,
Section Config Type:,Column,,,,,,Section Config Type:,Column,,,,,,,
Start Wavelength (nm):,900,,,,,,Start Wavelength (nm):,900,,,,,,,
End Wavelength (nm):,1700,,,,,,End Wavelength (nm):,1700,,,,,,,
Pattern Width (nm):,7.03,,,,,,Pattern Width (nm):,7.03,,,,,,,
Exposure (ms):,0.635,,,,,,Exposure (ms):,0.635,,,,,,,
Digital Resolution:,228,,,,,,Digital Resolution:,228,,,,,,,
Num Repeats:,20,,,,,,Num Repeats:,20,,,,,,,
PGA Gain:,64,(FixedPGA),,,,,PGA Gain:,64,(AutoPGA),,,,,,
System Temp (C):,40.54,,,,,,System Temp (C):,40.39,,,,,,,
Humidity (%):,20.84,,,,,,Humidity (%):,20.93,,,,,,,
Lamp Indicator:,1113,,,,,,Lamp Indicator:,1120,,,,,,,
Data Date-Time:,2023/11/13T12:37:43,,,,,,Data Date-Time:,2023/11/13T12:35:49,,,,,,,
Total Measurement Time in sec:,6.7985767,,,,,,,,,,,,,,
,,,,,,,,,,,,,,,
***General Information***,,,,,,,***Calibration Coefficients***,,,,,,,,
Model Name:,NIR-S-G1,,,,,,Shift Vector Coefficients:,-5.08535400046452,0.0413457073195706,-8.39863846568903E-05,,,,,
Serial Number:,B07R011,(95UB122GC0AB07R011),,,,,Pixel to Wavelength Coefficients:,1794.37724621797,-0.920219689099738,-0.000237242138379873,,,,,
GUI Version:,3.9.4,Revision:,526,,,,Versions (Cal/Ref/Cfg):,1,3,1,,,,,
TIVA Version:,2.4.7,,,,,,***Lamp Usage ***,,,,,,,,
DLPC Version:,2.3.1,,,,,,Total Time(hh:mm:ss):,2hr 1min 37sec ,,,,,,,
UUID:,DE:67:0C:88:67:2B:47:21,,,,,,***Device/Error/Activation Status***,,,,,,,,
Main Board Version:,D,,,,,,Device Status:,0x00000001,Activation Status:,Activated,,,,,
Detector Board Version:,B,,,,,,Error status:,0x00000000,Error Code:,0x00000000000000000000000000000000,,,,,
,,,,,,,,,Error Details:,Not found,,,,,
***Scan Data***,,,,,,,,,,,,,,,
Wavelength (nm),Absorbance (AU),Reference Signal (unitless),Sample Signal (unitless)
901.81429527209,0.2169465527739,87065,52832
905.716563509274,0.215662211478689,94445,57480
909.614561387966,0.212204923763026,102060,62611
913.508288908168,0.212655880442437,111454,68303
917.397746069878,0.212025100780018,122245,75025
921.282932873098,0.210309505397014,135667,83592
925.163849317827,0.210018171395802,152536,94049
929.040495404065,0.209707386576696,171117,105581
932.912871131812,0.209056555874552,190400,117655
938.069395988934,0.20835917689068,214750,132915
941.931807546869,0.208033294817099,231097,143140
945.789948746314,0.208123079400139,245163,151821
949.643819587268,0.206759955545475,257775,160133
953.493420069731,0.206163974649812,269327,167539
957.338750193702,0.205399498289249,280571,174841
961.179809959184,0.205782067061291,291483,181481
965.016599366174,0.205421983566566,301923,188137
968.849118414673,0.205568503911292,312092,194408
973.952501032798,0.205065894143071,325141,202771
977.775055911486,0.205208770696195,335079,208900
981.593340431682,0.205326222389293,343739,214241
985.407354593388,0.204691252484706,351760,219561
989.217098396603,0.204374088369013,359018,224255
993.022571841327,0.203779914111288,365357,228527
996.823774927561,0.203715744654214,370909,232034
1000.6207076553,0.202916132033896,376250,235809
1004.41337002455,0.202343529266173,381086,239155
1008.20176203532,0.202249684877761,384679,241462
1013.24630860312,0.20108729332455,387758,244047
1017.02473644407,0.200721731669202,390302,245855
1020.79889392653,0.200343260739984,392162,247242
1024.5687810505,0.200320211268243,393437,248059
1028.33439781597,0.199589637220921,393702,248644
1032.09574422296,0.198866938440872,393803,249122
1035.85282027145,0.198816335242945,394255,249437
1039.60562596146,0.197908566626533,394222,249938
1043.35416129297,0.19771823585677,394229,250052
1048.34556562178,0.19722638759071,393819,250075
1052.08413678348,0.197198004362227,393598,249951
1055.81843758669,0.195512982965107,392855,250449
1059.54846803141,0.196049840314533,393220,250372
1063.27422811764,0.195571507272061,393217,250646
1066.99571784538,0.195020318539294,393099,250889
1070.71293721462,0.194106526225928,393780,251853
1074.42588622538,0.193597452288772,394415,252555
1078.13456487764,0.193291976189446,395923,253699
1081.83897317142,0.193270863909091,397586,254777
1086.77154144991,0.192466627524617,399609,256548
1090.46598557387,0.192130506465293,401745,258119
1094.15615933934,0.191439298433262,404559,260341
1097.84206274632,0.190916002689229,406878,262149
1101.52369579481,0.191127962993424,409982,264020
1105.20105848481,0.190380465803541,413233,266572
1108.87415081632,0.190039547692579,416761,269059
1112.54297278934,0.189725839388114,420017,271357
1116.20752440387,0.189874355664317,423965,273814
1121.08695044336,0.18899930193682,429220,277767
1124.74153788807,0.189434576591759,433884,280504
1128.3918549743,0.189313917177522,438333,283459
1132.03790170203,0.18961579447955,443178,286393
1135.67967807127,0.189339071355668,447815,289574
1139.31718408202,0.188914335669054,452610,292961
1142.95041973428,0.189600532697614,458282,296164
1146.57938502805,0.189491511983494,463549,299643
1150.20407996333,0.189755938759825,468712,302796
1153.82450454012,0.190066622761425,474576,306365
1158.6450945293,0.190011295552413,482503,311522
1162.25555493627,0.190541930120777,488367,314923
1165.86174498476,0.19056716408078,494988,319174
1169.46366467475,0.190440090684242,501499,323467
1173.06131400625,0.190731519216639,508423,327713
1176.65469297927,0.191171521414519,515711,332074
1180.24380159379,0.191398841522401,522824,336478
1183.82863984982,0.191582346642269,530623,341353
1187.40920774736,0.19167312839566,538766,346519
1192.17665549754,0.191639159427149,549249,353289
1195.74725922527,0.191690563456147,557264,358402
1199.3135925945,0.191858588246632,566044,363908
1202.87565560525,0.191430522231297,574193,369511
1206.43344825751,0.191511608943165,582679,374902
1209.98697055127,0.190912473481159,591556,381139
1213.53622248654,0.190650090233411,600186,386933
1217.08120406333,0.190218281503212,608571,392729
1220.62191528162,0.189820496262564,617306,398731
1224.15835614142,0.189342606843419,625575,404517
1228.86696784128,0.188524676523506,636217,412174
1232.39344453127,0.187977784029693,644108,417812
1235.91565086277,0.187651917165789,651757,423091
1239.43358683578,0.186929306252091,658526,428197
1242.94725245029,0.186777334017034,665512,432891
1246.45664770632,0.18645166128277,672092,437499
1249.96177260386,0.185951169139306,678071,441900
1253.4626271429,0.185668271780614,683317,445609
1256.95921132345,0.185622838429532,689118,449439
1261.61468078432,0.185196456754548,698406,455944
1265.10130079506,0.185150170177966,705740,460781
1268.58365044731,0.184590014737132,712064,465510
1272.06172974107,0.184380233606184,718484,469934
1275.53553867634,0.184346353870033,724193,473705
1279.00507725312,0.183947180414012,729654,477716
1282.4703454714,0.183612488641343,734951,481555
1285.9313433312,0.183448495405895,739345,484617
1289.38807083251,0.183208837523312,743513,487618
1292.84052797532,0.182674826560197,746964,490484
1297.43716138587,0.182483249694975,751900,493943
1300.87965435887,0.18256079890816,755262,496063
1304.31787697338,0.182315437498149,757687,497937
1307.7518292294,0.18202895287227,759923,499736
1311.18151112693,0.182267659161866,762267,501002
1314.60692266597,0.182052982446647,763849,502290
1318.02806384652,0.18212153488191,765124,503049
1321.44493466858,0.182097721935237,766025,503669
1324.85753513215,0.182174101575514,766826,504107
1329.4010263037,0.182903360188992,767458,503676
1332.80366259745,0.182998561596497,767230,503416
1336.20202853272,0.183808043448874,767249,502491
1339.59612410949,0.184444128133343,766664,501373
1342.98594932777,0.185391797625825,765896,499779
1346.37150418756,0.18612686949514,763979,497685
1349.75278868886,0.186828347974408,761959,495568
1353.12980283167,0.187738439172056,759234,492762
1356.50254661599,0.188904254610198,757377,490239
1359.87102004182,0.189469376182392,754072,487465
1364.35567516305,0.190821093382363,751350,484196
1367.71418441907,0.191481976809878,749156,482048
1371.06842331659,0.192284795094737,746522,479466
1374.41839185563,0.192747076411641,741628,475816
1377.76409003617,0.193723765548809,735601,470889
1381.10551785823,0.194833994638795,729650,465887
1384.44267532179,0.196147552607321,723668,460672
1387.77556242686,0.197959017915209,717941,455124
1391.10417917344,0.200189173279823,713102,449741
1395.53569205567,0.203352431105282,707213,442790
1398.85434463244,0.206731041203771,703286,436919
1402.16872685072,0.210679764810745,699395,430569
1405.47883871051,0.215587158970854,696906,424216
1408.7846802118,0.220244518829816,693741,417785
1412.08625135461,0.225857397475027,691389,411022
1415.38355213892,0.230829954520296,688730,404780
1418.67658256475,0.235728265598657,686792,399114
1421.96534263208,0.240773249739002,685233,393609
1425.24983234092,0.244572954954339,683529,389210
1429.62250917284,0.249730708572216,681798,383641
1432.89703471187,0.25258947435377,681036,380698
1436.16728989241,0.255254868825874,679638,377592
1439.43327471445,0.256765134679485,678926,375887
1442.69498917801,0.25896348670437,677980,373468
1445.95243328308,0.259541288748907,677123,372500
1449.20560702965,0.25991704118199,675857,371482
1452.45451041774,0.259884025288631,673910,370440
1455.69914344733,0.260438122933493,671712,368761
1460.01867804025,0.260240414832483,669043,367463
1463.25334690003,0.259610476145601,666477,366585
1466.48374540132,0.259182733550186,663556,365338
1469.70987354412,0.258361920128353,660008,364072
1472.93173132843,0.257307976354666,657117,363358
1476.14931875425,0.256778341436831,654145,362156
1479.36263582158,0.25567675888339,650261,360920
1482.57168253042,0.254533352266049,646350,359695
1485.77645888076,0.253283987005895,642112,358366
1488.97696487262,0.252573668453208,638374,356863
1493.23766341522,0.250864773806047,631653,354498
1496.42820523726,0.249838074167936,627056,352751
1499.61447670082,0.248787260552603,622338,350945
1502.79647780588,0.247525637235563,616862,348869
1505.97420855245,0.24652700820173,611296,346517
1509.14766894053,0.24531972819142,605727,344316
1512.31685897012,0.243631443473869,599271,341973
1515.48177864122,0.242839379883272,592823,338911
1518.64242795382,0.241916590458642,586810,336187
1522.84998425743,0.240047451835524,577616,332347
1526.00066940022,0.239262801490579,571001,329135
1529.14708418453,0.238448474892496,563869,325634
1532.28922861034,0.238009247344539,556281,321577
1535.42710267766,0.237128236677624,548433,317684
1538.5607063865,0.236583064133602,540381,313413
1541.69003973684,0.236321188060844,532196,308852
1544.81510272869,0.235562783056925,523661,304430
1547.93589536205,0.234894557530603,515031,299874
1551.05241763692,0.234590733092367,506630,295189
1555.2011378902,0.233803455030978,494623,288716
1558.30769599526,0.233370643163386,486403,284201
1561.40998374183,0.23275871144392,477248,279245
1564.5080011299,0.232522835433032,468180,274088
1567.60174815948,0.232058490523726,458626,268782
1570.69122483058,0.231612829657308,448997,263409
1573.77643114318,0.231038442806129,439955,258446
1576.85736709729,0.230743529698473,430448,253033
1579.93403269291,0.229512967766218,420499,247886
1584.0296107072,0.229002866621189,407740,240647
1587.09631213301,0.228192567630009,398294,235511
1590.15874320033,0.227612877788658,389340,230524
1593.21690390916,0.226611746850083,379410,225163
1596.27079425949,0.2257973686797,370574,220332
1599.32041425134,0.225114205069229,361377,215202
1602.36576388469,0.224388218418402,352413,210215
1605.40684315956,0.222927520199323,343158,205384
1608.44365207593,0.222397826099005,333730,199985
1611.47619063381,0.221425790406939,324995,195187
1615.51293259778,0.22131320478985,313370,188254
1618.53550698585,0.219260123296209,304377,183718
1621.55381101543,0.219117957501179,295935,178681
1624.56784468652,0.219610836883247,286989,173083
1627.57760799912,0.219471516851036,278750,168168
1630.58310095323,0.218699812825507,270073,163223
1633.58432354884,0.218881880335009,261615,158045
1636.58127578597,0.218135421465292,253176,153210
1639.5739576646,0.218686339325303,245064,148113
1643.55755738958,0.21904300544814,233798,141188
1646.5402750984,0.220159669883212,225825,136023
1649.51872244873,0.220529982189614,217678,131004
1652.49289944057,0.221882570782009,209743,125836
1655.46280607392,0.223063756762754,202118,120932
1658.42844234878,0.224738806725934,194396,115864
1661.38980826515,0.225713698927609,186383,110839
1664.34690382303,0.226648986310503,178219,105756
1667.29972902242,0.226818863944106,169261,100401
1670.24828386331,0.227134752789031,159810,94726
1674.17304753796,0.226999927463085,144885,85906
1677.11163820905,0.226906277959274,132005,78286
1680.04595852164,0.227126276590568,118255,70096
1682.97600847574,0.225658215167857,103894,61792
1685.90178807136,0.227529709198476,90594,53650
1688.82329730848,0.227955221699577,77399,45791
1691.74053618711,0.226852297393115,65561,38886
1694.65350470725,0.228236412752685,55820,33003
1697.56220286889,0.232208153929002,47148,27622
1701.43382430455,0.230498132763746,37950,22321
