***Scan Config Information***,,,,,,,***Reference Scan Information***,,,,,,,,
Scan Config Name:,herbario,,,,,,Scan Config Name:,Local New Reference,,,,,,,
Scan Config Type:,Slew,Num Section:,1,,,,Scan Config Type:,Slew,Num Section:,1,,,,,
Section Config Type:,Column,,,,,,Section Config Type:,Column,,,,,,,
Start Wavelength (nm):,900,,,,,,Start Wavelength (nm):,900,,,,,,,
End Wavelength (nm):,1700,,,,,,End Wavelength (nm):,1700,,,,,,,
Pattern Width (nm):,7.03,,,,,,Pattern Width (nm):,7.03,,,,,,,
Exposure (ms):,0.635,,,,,,Exposure (ms):,0.635,,,,,,,
Digital Resolution:,228,,,,,,Digital Resolution:,228,,,,,,,
Num Repeats:,20,,,,,,Num Repeats:,20,,,,,,,
PGA Gain:,64,(FixedPGA),,,,,PGA Gain:,64,(AutoPGA),,,,,,
System Temp (C):,39.88,,,,,,System Temp (C):,39.47,,,,,,,
Humidity (%):,31.32,,,,,,Humidity (%):,32.29,,,,,,,
Lamp Indicator:,1105,,,,,,Lamp Indicator:,1113,,,,,,,
Data Date-Time:,2023/11/13T09:45:18,,,,,,Data Date-Time:,2023/11/13T09:41:04,,,,,,,
Total Measurement Time in sec:,6.772527,,,,,,,,,,,,,,
,,,,,,,,,,,,,,,
***General Information***,,,,,,,***Calibration Coefficients***,,,,,,,,
Model Name:,NIR-S-G1,,,,,,Shift Vector Coefficients:,-5.08535400046452,0.0413457073195706,-8.39863846568903E-05,,,,,
Serial Number:,B07R011,(95UB122GC0AB07R011),,,,,Pixel to Wavelength Coefficients:,1794.37724621797,-0.920219689099738,-0.000237242138379873,,,,,
GUI Version:,3.9.4,Revision:,526,,,,Versions (Cal/Ref/Cfg):,1,3,1,,,,,
TIVA Version:,2.4.7,,,,,,***Lamp Usage ***,,,,,,,,
DLPC Version:,2.3.1,,,,,,Total Time(hh:mm:ss):,1hr 48min 1sec ,,,,,,,
UUID:,DE:67:0C:88:67:2B:47:21,,,,,,***Device/Error/Activation Status***,,,,,,,,
Main Board Version:,D,,,,,,Device Status:,0x00000001,Activation Status:,Activated,,,,,
Detector Board Version:,B,,,,,,Error status:,0x00000000,Error Code:,0x00000000000000000000000000000000,,,,,
,,,,,,,,,Error Details:,Not found,,,,,
***Scan Data***,,,,,,,,,,,,,,,
Wavelength (nm),Absorbance (AU),Reference Signal (unitless),Sample Signal (unitless)
901.81429527209,0.53240445895592,86149,25284
905.716563509274,0.531423296497633,93692,27560
909.614561387966,0.523399080558421,100774,30196
913.508288908168,0.522861649324579,110079,33025
917.397746069878,0.517290533389002,120845,36723
921.282932873098,0.515052869325271,134429,41062
925.163849317827,0.512576692583499,151080,46412
929.040495404065,0.506814484997471,169763,52848
932.912871131812,0.501829839779942,189023,59523
938.069395988934,0.496096019913918,212747,67884
941.931807546869,0.492268531674873,228727,73629
945.789948746314,0.486368670673827,242502,79131
949.643819587268,0.480945203220834,254725,84164
953.493420069731,0.477298985980213,266401,88764
957.338750193702,0.471935475985548,277716,93684
961.179809959184,0.46771879258877,288129,98145
965.016599366174,0.461964528340938,298318,102971
968.849118414673,0.457859631505647,307984,107317
973.952501032798,0.452756500494368,321200,113245
977.775055911486,0.447689877654227,330917,118040
981.593340431682,0.443693235884603,339555,122241
985.407354593388,0.439817357908551,347198,126113
989.217098396603,0.435328985468449,354748,130194
993.022571841327,0.431036853359344,360945,133784
996.823774927561,0.427031164000626,366164,136976
1000.6207076553,0.422229183567347,371732,140605
1004.41337002455,0.417759596427122,376323,143814
1008.20176203532,0.414534649079804,379557,146131
1013.24630860312,0.408653100501648,382951,149448
1017.02473644407,0.403704361384325,385280,152080
1020.79889392653,0.400693875436451,386888,153777
1024.5687810505,0.397003039627457,388234,155629
1028.33439781597,0.392416501340061,388685,157464
1032.09574422296,0.389141834142859,388612,158626
1035.85282027145,0.38499381965569,389230,160403
1039.60562596146,0.381283441029453,389085,161719
1043.35416129297,0.378297352312817,389076,162831
1048.34556562178,0.37345476151755,388481,164405
1052.08413678348,0.370119862783131,388288,165590
1055.81843758669,0.367247396776015,388088,166603
1059.54846803141,0.364451652012901,387896,167596
1063.27422811764,0.36081428352811,387796,168962
1066.99571784538,0.358189138445971,388208,170167
1070.71293721462,0.355683743272837,388538,171297
1074.42588622538,0.351903704552994,389288,173128
1078.13456487764,0.349058998789931,390477,174798
1081.83897317142,0.347420748596634,392414,176329
1086.77154144991,0.343544953492379,394530,178869
1090.46598557387,0.341693884500517,396779,180657
1094.15615933934,0.338674051704891,399105,182984
1097.84206274632,0.336233107024954,401503,185121
1101.52369579481,0.334004258231414,404430,187430
1105.20105848481,0.332615666796623,408015,189697
1108.87415081632,0.329892024393306,411216,192388
1112.54297278934,0.328042261213173,414472,194739
1116.20752440387,0.327460478814976,418115,196714
1121.08695044336,0.324660615231599,423810,200683
1124.74153788807,0.323636748218983,427898,203097
1128.3918549743,0.321827329460082,432365,206074
1132.03790170203,0.320855050360842,437222,208856
1135.67967807127,0.319267062205977,441773,211803
1139.31718408202,0.318497141142407,446685,214538
1142.95041973428,0.317126151287289,452035,217794
1146.57938502805,0.316253547167707,457321,220784
1150.20407996333,0.315180980190194,462464,223819
1153.82450454012,0.314459048221747,468334,227037
1158.6450945293,0.31411827992416,476399,231128
1162.25555493627,0.313635280356931,482250,234227
1165.86174498476,0.312694248554992,488331,237695
1169.46366467475,0.312112587426606,495242,241382
1173.06131400625,0.311491524759065,501875,244965
1176.65469297927,0.310453323830536,508705,248893
1180.24380159379,0.309656976814587,515803,252829
1183.82863984982,0.309161054918102,523930,257106
1187.40920774736,0.308030094683797,531549,261525
1192.17665549754,0.306756989209957,541895,267398
1195.74725922527,0.305845366770194,550217,272075
1199.3135925945,0.304349734472193,558646,277196
1202.87565560525,0.303172517712754,566936,282073
1206.43344825751,0.301634031455102,574871,287036
1209.98697055127,0.300069527501146,584009,292651
1213.53622248654,0.298349502202088,592297,297982
1217.08120406333,0.29650196032749,600817,303557
1220.62191528162,0.294636000141734,609171,309103
1224.15835614142,0.29223918749272,617327,314975
1228.86696784128,0.28993502713028,627487,321862
1232.39344453127,0.288545808285477,635633,327085
1235.91565086277,0.287395629804311,643259,331887
1239.43358683578,0.285338692614984,649938,336925
1242.94725245029,0.284153034401222,656394,341202
1246.45664770632,0.282637417779959,663106,345896
1249.96177260386,0.28139234280624,668724,349828
1253.4626271429,0.280541459221458,674207,353388
1256.95921132345,0.279826270271695,679486,356742
1261.61468078432,0.278181516620409,688849,363030
1265.10130079506,0.277607888304693,695984,367275
1268.58365044731,0.276514958129804,702461,371627
1272.06172974107,0.275584363005401,708753,375760
1275.53553867634,0.274888789672267,714304,379310
1279.00507725312,0.274015435271698,719569,382875
1282.4703454714,0.273066827672513,724645,386419
1285.9313433312,0.272346792423111,729048,389412
1289.38807083251,0.271312967048049,732985,392448
1292.84052797532,0.270666332282628,736499,394917
1297.43716138587,0.269607769173904,741210,398413
1300.87965435887,0.269485828775588,744744,400425
1304.31787697338,0.268489170561873,747212,402675
1307.7518292294,0.268432002299891,749444,403931
1311.18151112693,0.267627777896828,751328,405697
1314.60692266597,0.267264118605679,752890,406881
1318.02806384652,0.26732734299504,754358,407615
1321.44493466858,0.267097688587552,755143,408255
1324.85753513215,0.267546300497074,756166,408386
1329.4010263037,0.26744409144253,756449,408635
1332.80366259745,0.268078251707409,756557,408097
1336.20202853272,0.268790087715823,756034,407147
1339.59612410949,0.269729962388666,755878,406183
1342.98594932777,0.270622294406924,754643,404687
1346.37150418756,0.271915399946555,752614,402399
1349.75278868886,0.273086542223275,750678,400283
1353.12980283167,0.274762838411498,747664,397140
1356.50254661599,0.275707900748402,745208,394975
1359.87102004182,0.277410193157267,742100,391789
1364.35567516305,0.279015651714791,739375,388910
1367.71418441907,0.280138766614062,737506,386925
1371.06842331659,0.281216215367134,734817,384559
1374.41839185563,0.282278934554834,730210,381214
1377.76409003617,0.2841194131527,724272,376515
1381.10551785823,0.285789653680058,718014,371829
1384.44267532179,0.287981006886683,712404,367067
1387.77556242686,0.29072286932866,707002,361991
1391.10417917344,0.294307922482957,701860,356404
1395.53569205567,0.299407999254809,696195,349400
1398.85434463244,0.304663779570956,692375,343303
1402.16872685072,0.311351197787004,688985,336402
1405.47883871051,0.318453128584305,685965,329495
1408.7846802118,0.326359828343983,683513,322394
1412.08625135461,0.334659658995824,681170,315207
1415.38355213892,0.342660758089154,678414,308201
1418.67658256475,0.350150357156073,676572,302109
1421.96534263208,0.357579079796734,675127,296351
1425.24983234092,0.36394249115071,673554,291360
1429.62250917284,0.371621986015543,671671,285453
1432.89703471187,0.3767106148578,671019,281854
1436.16728989241,0.381134342796782,669536,278381
1439.43327471445,0.384296074466612,669011,276145
1442.69498917801,0.386951250157216,667756,273947
1445.95243328308,0.389636283601583,667090,271987
1449.20560702965,0.391166789308769,665822,270515
1452.45451041774,0.392407238586925,664019,269013
1455.69914344733,0.393175312001091,661740,267616
1460.01867804025,0.393865391066405,659060,266109
1463.25334690003,0.393713208185683,656794,265287
1466.48374540132,0.393195003543736,653669,264340
1469.70987354412,0.39283374522194,650630,263330
1472.93173132843,0.391554635202418,647268,262742
1476.14931875425,0.390338342417724,644313,262276
1479.36263582158,0.388713965718924,640515,261707
1482.57168253042,0.387572236432039,636778,260865
1485.77645888076,0.38609230856298,632904,260163
1488.97696487262,0.384402675923225,628629,259413
1493.23766341522,0.382841023931797,622362,257752
1496.42820523726,0.381599481915702,617778,256586
1499.61447670082,0.379518970850063,612681,255691
1502.79647780588,0.378028983934771,607526,254411
1505.97420855245,0.376538128194303,601941,252939
1509.14766894053,0.375253475578453,596407,251356
1512.31685897012,0.37382833540553,590461,249668
1515.48177864122,0.372322304577544,583800,247709
1518.64242795382,0.371287017532067,577804,245750
1522.84998425743,0.369332590812527,568925,243065
1526.00066940022,0.368858887496881,562331,240510
1529.14708418453,0.367530041201768,555450,238295
1532.28922861034,0.366902660271039,548124,235492
1535.42710267766,0.366346980926539,540275,232417
1538.5607063865,0.365863730854466,532462,229311
1541.69003973684,0.365564176608808,523992,225819
1544.81510272869,0.365366884095644,515627,222315
1547.93589536205,0.364811640307094,507111,218923
1551.05241763692,0.364258260022624,498780,215601
1555.2011378902,0.364390717551681,487211,210536
1558.30769599526,0.363331889900856,478672,207351
1561.40998374183,0.363632391474178,470017,203461
1564.5080011299,0.362965133395364,461031,199878
1567.60174815948,0.363246018388759,451737,195722
1570.69122483058,0.362930593238765,442541,191877
1573.77643114318,0.362804613768806,433146,187858
1576.85736709729,0.362306797209357,423654,183952
1579.93403269291,0.361371367257301,414182,180227
1584.0296107072,0.36091002795491,401465,174879
1587.09631213301,0.361267548174379,392394,170787
1590.15874320033,0.360156122868965,383196,167211
1593.21690390916,0.359294196921751,373617,163355
1596.27079425949,0.358056675401671,364802,159956
1599.32041425134,0.357397108743614,355816,156253
1602.36576388469,0.356755332583657,347048,152628
1605.40684315956,0.355731630821812,337917,148963
1608.44365207593,0.354350194718398,328441,145247
1611.47619063381,0.35403753893764,319844,141547
1615.51293259778,0.354650973590681,308414,136296
1618.53550698585,0.353022843472315,299656,132923
1621.55381101543,0.352329618753888,290857,129226
1624.56784468652,0.35295772282382,282609,125380
1627.57760799912,0.353659777073119,274241,121471
1630.58310095323,0.352271319047693,265345,117907
1633.58432354884,0.352953719186494,257161,114091
1636.58127578597,0.353770270990537,249023,110273
1639.5739576646,0.354379549549057,240682,106430
1643.55755738958,0.356922576822328,229778,101015
1646.5402750984,0.359510825921142,222083,97052
1649.51872244873,0.361508460735485,214346,93241
1652.49289944057,0.363790494048603,206176,89217
1655.46280607392,0.366599682630764,198787,85465
1658.42844234878,0.368814229506154,190681,81563
1661.38980826515,0.367559208102502,182958,78486
1664.34690382303,0.370520876027359,174803,74478
1667.29972902242,0.368899672579887,165507,70781
1670.24828386331,0.368847540273298,155768,66624
1674.17304753796,0.369909159652865,140479,59938
1677.11163820905,0.369905849262266,127332,54329
1680.04595852164,0.371046994644093,113422,48267
1682.97600847574,0.370304594637864,99458,42397
1685.90178807136,0.371488768346396,85630,36403
1688.82329730848,0.371527160723468,73367,31187
1691.74053618711,0.372461454688997,62006,26301
1694.65350470725,0.370883885168949,52512,22355
1697.56220286889,0.373574453568618,44509,18831
1701.43382430455,0.377429609830408,35577,14919
