***Scan Config Information***,,,,,,,***Reference Scan Information***,,,,,,,,
Scan Config Name:,herbario,,,,,,Scan Config Name:,Local New Reference,,,,,,,
Scan Config Type:,Slew,Num Section:,1,,,,Scan Config Type:,Slew,Num Section:,1,,,,,
Section Config Type:,Column,,,,,,Section Config Type:,Column,,,,,,,
Start Wavelength (nm):,900,,,,,,Start Wavelength (nm):,900,,,,,,,
End Wavelength (nm):,1700,,,,,,End Wavelength (nm):,1700,,,,,,,
Pattern Width (nm):,7.03,,,,,,Pattern Width (nm):,7.03,,,,,,,
Exposure (ms):,0.635,,,,,,Exposure (ms):,0.635,,,,,,,
Digital Resolution:,228,,,,,,Digital Resolution:,228,,,,,,,
Num Repeats:,20,,,,,,Num Repeats:,20,,,,,,,
PGA Gain:,64,(FixedPGA),,,,,PGA Gain:,64,(AutoPGA),,,,,,
System Temp (C):,39.37,,,,,,System Temp (C):,38.77,,,,,,,
Humidity (%):,32.53,,,,,,Humidity (%):,33.73,,,,,,,
Lamp Indicator:,1104,,,,,,Lamp Indicator:,1104,,,,,,,
Data Date-Time:,2023/11/13T09:40:07,,,,,,Data Date-Time:,2023/11/13T09:36:43,,,,,,,
Total Measurement Time in sec:,6.8076807,,,,,,,,,,,,,,
,,,,,,,,,,,,,,,
***General Information***,,,,,,,***Calibration Coefficients***,,,,,,,,
Model Name:,NIR-S-G1,,,,,,Shift Vector Coefficients:,-5.08535400046452,0.0413457073195706,-8.39863846568903E-05,,,,,
Serial Number:,B07R011,(95UB122GC0AB07R011),,,,,Pixel to Wavelength Coefficients:,1794.37724621797,-0.920219689099738,-0.000237242138379873,,,,,
GUI Version:,3.9.4,Revision:,526,,,,Versions (Cal/Ref/Cfg):,1,3,1,,,,,
TIVA Version:,2.4.7,,,,,,***Lamp Usage ***,,,,,,,,
DLPC Version:,2.3.1,,,,,,Total Time(hh:mm:ss):,1hr 47min 11sec ,,,,,,,
UUID:,DE:67:0C:88:67:2B:47:21,,,,,,***Device/Error/Activation Status***,,,,,,,,
Main Board Version:,D,,,,,,Device Status:,0x00000001,Activation Status:,Activated,,,,,
Detector Board Version:,B,,,,,,Error status:,0x00000000,Error Code:,0x00000000000000000000000000000000,,,,,
,,,,,,,,,Error Details:,Not found,,,,,
***Scan Data***,,,,,,,,,,,,,,,
Wavelength (nm),Absorbance (AU),Reference Signal (unitless),Sample Signal (unitless)
901.81429527209,0.52752316279638,86207,25587
905.716563509274,0.525778852513395,93707,27925
909.614561387966,0.51972555483434,101186,30577
913.508288908168,0.515254898918834,110336,33687
917.397746069878,0.512069354335851,121446,37352
921.282932873098,0.506109039030386,134912,42067
925.163849317827,0.503807051608251,151502,47491
929.040495404065,0.498704231233532,170352,54031
932.912871131812,0.494692676379197,189725,60734
938.069395988934,0.490411925080498,213674,69078
941.931807546869,0.486128526292228,229363,74885
945.789948746314,0.481723728176334,243321,80252
949.643819587268,0.477269123952427,255564,85159
953.493420069731,0.472174984540293,267061,90040
957.338750193702,0.467301285422258,278282,94882
961.179809959184,0.463531435299072,289054,99414
965.016599366174,0.460734706887104,299384,103632
968.849118414673,0.45671166933413,309249,108043
973.952501032798,0.451509710713994,322505,114032
977.775055911486,0.448111380803731,332184,118377
981.593340431682,0.444121181092172,340824,122577
985.407354593388,0.441179735742294,348438,126167
989.217098396603,0.436436547268143,355856,130268
993.022571841327,0.432492857374862,362417,133880
996.823774927561,0.430166845733844,367743,136577
1000.6207076553,0.425884933879166,373112,139944
1004.41337002455,0.42344832039768,377756,142483
1008.20176203532,0.419071620566437,381102,145201
1013.24630860312,0.415268886928738,384846,147917
1017.02473644407,0.412235143747286,387107,149829
1020.79889392653,0.408969030811079,388666,151568
1024.5687810505,0.405261482202364,389992,153389
1028.33439781597,0.402142452276395,390402,154657
1032.09574422296,0.398574738736394,390290,155888
1035.85282027145,0.396683574922925,390890,156809
1039.60562596146,0.394244526681117,391026,157747
1043.35416129297,0.391055655962068,390941,158875
1048.34556562178,0.387394143966891,390277,159948
1052.08413678348,0.38424858994236,389895,160953
1055.81843758669,0.382187976448613,389848,161699
1059.54846803141,0.379753989122868,389779,162579
1063.27422811764,0.37713722340004,390016,163661
1066.99571784538,0.374769631323084,389512,164343
1070.71293721462,0.373216436748996,390502,165351
1074.42588622538,0.369727194844514,391313,167031
1078.13456487764,0.367715398519786,392550,168337
1081.83897317142,0.365905880909224,394436,169852
1086.77154144991,0.363107023121784,396353,171781
1090.46598557387,0.360654530912914,398556,173714
1094.15615933934,0.35867371557865,401068,175608
1097.84206274632,0.356449827729064,403289,177487
1101.52369579481,0.354991184001264,406278,179404
1105.20105848481,0.352879820042144,409678,181787
1108.87415081632,0.351467790209233,413308,183995
1112.54297278934,0.350036293733608,416625,186084
1116.20752440387,0.349119156014404,420105,188035
1121.08695044336,0.346908567811877,425692,191508
1124.74153788807,0.345845895575765,430173,193998
1128.3918549743,0.344497320154012,434527,196571
1132.03790170203,0.343601971289949,439350,199163
1135.67967807127,0.342786457536345,444059,201676
1139.31718408202,0.34199397971413,449166,204368
1142.95041973428,0.340747929266995,454331,207312
1146.57938502805,0.340201597023347,459420,209898
1150.20407996333,0.339219437675588,464676,212780
1153.82450454012,0.33901950890551,470657,215618
1158.6450945293,0.338789926981069,478511,219332
1162.25555493627,0.33761513881518,484455,222658
1165.86174498476,0.337021355542243,490720,225846
1169.46366467475,0.336763111080269,497388,229051
1173.06131400625,0.33588183961954,504177,232649
1176.65469297927,0.335201874165356,511407,236355
1180.24380159379,0.334797222601198,518367,239795
1183.82863984982,0.334322449572863,526492,243820
1187.40920774736,0.333859912748103,534357,247726
1192.17665549754,0.332533650054164,544809,253344
1195.74725922527,0.332214475197699,552942,257315
1199.3135925945,0.331000951929888,561625,262087
1202.87565560525,0.329726946478193,569725,266648
1206.43344825751,0.328586620724052,577827,271151
1209.98697055127,0.327816269343547,586818,275859
1213.53622248654,0.32685121449749,595746,280679
1217.08120406333,0.325332421509026,603897,285516
1220.62191528162,0.323593138188206,612400,290698
1224.15835614142,0.32177572543405,620720,295883
1228.86696784128,0.320568787655819,631332,301779
1232.39344453127,0.319327443774178,639370,306496
1235.91565086277,0.318089982250196,646720,310904
1239.43358683578,0.317218993836774,653670,314876
1242.94725245029,0.315666943989495,660326,319221
1246.45664770632,0.314670233494068,667115,323244
1249.96177260386,0.314037988745723,672803,326475
1253.4626271429,0.313105266045309,678267,329834
1256.95921132345,0.312352393009738,683768,333086
1261.61468078432,0.311500503368233,693088,338289
1265.10130079506,0.310780921827466,700022,342240
1268.58365044731,0.31026542394219,706483,345809
1272.06172974107,0.309260034948101,713139,349876
1275.53553867634,0.308901520833757,718756,352923
1279.00507725312,0.308295543785923,724034,356011
1282.4703454714,0.307818244423889,729512,359099
1285.9313433312,0.306815697577717,733807,362048
1289.38807083251,0.306451934248317,738059,364451
1292.84052797532,0.305891134179756,741368,366558
1297.43716138587,0.305377009118939,746327,369447
1300.87965435887,0.304556924294294,749490,371714
1304.31787697338,0.303943213618566,751778,373376
1307.7518292294,0.303964249474537,754426,374673
1311.18151112693,0.303513873113532,756442,376064
1314.60692266597,0.303222967428339,758223,377202
1318.02806384652,0.302766133878227,759219,378095
1321.44493466858,0.302901723149894,760370,378550
1324.85753513215,0.302987722719535,761280,378928
1329.4010263037,0.303055961114855,761695,379075
1332.80366259745,0.303398770803213,761289,378574
1336.20202853272,0.304003554775173,761341,378073
1339.59612410949,0.304371766286408,760582,377376
1342.98594932777,0.305069749077745,759714,376340
1346.37150418756,0.306165338115279,757980,374535
1349.75278868886,0.307246099053875,755744,372502
1353.12980283167,0.308429054675951,752990,370135
1356.50254661599,0.308632536333273,750353,368666
1359.87102004182,0.309907807336024,747193,366037
1364.35567516305,0.31088652388521,744255,363777
1367.71418441907,0.31163317238842,742441,362267
1371.06842331659,0.312435293279518,739974,360397
1374.41839185563,0.313248526154497,735488,357542
1377.76409003617,0.314071792048394,729361,353892
1381.10551785823,0.31512350612184,723068,349990
1384.44267532179,0.316620612420011,717316,346011
1387.77556242686,0.31856639750844,711945,341885
1391.10417917344,0.320390286110843,706817,338000
1395.53569205567,0.323990253904941,701023,332462
1398.85434463244,0.327106764733366,697086,328231
1402.16872685072,0.331250570893983,693548,323464
1405.47883871051,0.335946325445478,690983,318802
1408.7846802118,0.341242720418419,688217,313677
1412.08625135461,0.346796139861557,685887,308643
1415.38355213892,0.352129917259663,683177,303671
1418.67658256475,0.358066865193328,681852,298967
1421.96534263208,0.362407284770747,679795,295101
1425.24983234092,0.367572509486757,678254,290951
1429.62250917284,0.372757168005561,676418,286720
1432.89703471187,0.375818896359122,675549,284340
1436.16728989241,0.37956873388782,674491,281454
1439.43327471445,0.381604388326416,673432,279698
1442.69498917801,0.383339723646723,672582,278231
1445.95243328308,0.384585861766941,671797,277110
1449.20560702965,0.3861258690791,670663,275663
1452.45451041774,0.386592538472944,668666,274547
1455.69914344733,0.387483617687898,666669,273166
1460.01867804025,0.38758276218299,663826,271939
1463.25334690003,0.387485027050738,661363,270991
1466.48374540132,0.386843651700314,658262,270119
1469.70987354412,0.386438141494826,655101,269073
1472.93173132843,0.385659552478885,652066,268307
1476.14931875425,0.38498811481372,648768,267363
1479.36263582158,0.384060739237971,645217,266468
1482.57168253042,0.383719618596243,641478,265132
1485.77645888076,0.382758162929589,637247,263967
1488.97696487262,0.381864813331935,633432,262927
1493.23766341522,0.380723737779012,626945,260919
1496.42820523726,0.379556287069421,622173,259630
1499.61447670082,0.37894471664519,617215,257924
1502.79647780588,0.377392202596999,612175,256734
1505.97420855245,0.376233097591277,606101,254866
1509.14766894053,0.375975861172483,600549,252681
1512.31685897012,0.374485468158807,594799,251122
1515.48177864122,0.373816882296402,587818,248557
1518.64242795382,0.372868345255895,582111,246682
1522.84998425743,0.371825225921135,573212,243495
1526.00066940022,0.371038779024301,566681,241157
1529.14708418453,0.370228093714227,559336,238476
1532.28922861034,0.369609288954329,551806,235601
1535.42710267766,0.369269907628069,544326,232589
1538.5607063865,0.369405578906183,536457,229155
1541.69003973684,0.368593562244843,527772,225867
1544.81510272869,0.368385557216264,519422,222400
1547.93589536205,0.368026399104199,510650,218825
1551.05241763692,0.368313794205103,502348,215125
1555.2011378902,0.36738955102193,490489,210494
1558.30769599526,0.367221184393061,482193,207014
1561.40998374183,0.367865527581189,473564,203008
1564.5080011299,0.367131429935302,464313,199379
1567.60174815948,0.367288780665206,454762,195207
1570.69122483058,0.366361736044497,445463,191624
1573.77643114318,0.366834857248881,436030,187362
1576.85736709729,0.366335653047436,426396,183433
1579.93403269291,0.366825378034368,417117,179239
1584.0296107072,0.365334992474715,404382,174364
1587.09631213301,0.364631660691639,394973,170583
1590.15874320033,0.364479172919859,386055,166790
1593.21690390916,0.363814103294796,376146,162758
1596.27079425949,0.363026285937359,367464,159290
1599.32041425134,0.362776736257094,358335,155422
1602.36576388469,0.362182185573296,349167,151653
1605.40684315956,0.362798690814987,340521,147688
1608.44365207593,0.360516902727581,331248,144423
1611.47619063381,0.360362984661623,321893,140394
1615.51293259778,0.359576841755558,310465,135655
1618.53550698585,0.359030169146806,301672,131979
1621.55381101543,0.359366383264284,292998,128085
1624.56784468652,0.360038045645551,284317,124098
1627.57760799912,0.35898349227928,275907,120720
1630.58310095323,0.359095604080651,267019,116801
1633.58432354884,0.358910804704312,258992,113338
1636.58127578597,0.358931540243407,250469,109603
1639.5739576646,0.359360610160649,242461,105994
1643.55755738958,0.362406103697417,231585,100532
1646.5402750984,0.363808612695547,223633,96767
1649.51872244873,0.364556591838695,215733,93188
1652.49289944057,0.366014437147875,207418,89296
1655.46280607392,0.368652875642208,199930,85551
1658.42844234878,0.368965245883804,191781,82005
1661.38980826515,0.370801613531707,183857,78285
1664.34690382303,0.37302573324902,175833,74486
1667.29972902242,0.373384643956355,166332,70403
1670.24828386331,0.374443114742634,156258,65978
1674.17304753796,0.373590220652744,140448,59419
1677.11163820905,0.372185964551446,126730,53789
1680.04595852164,0.375060375262301,112682,47511
1682.97600847574,0.372426298871886,98302,41700
1685.90178807136,0.374305185090563,84589,35728
1688.82329730848,0.375798257576134,72182,30383
1691.74053618711,0.38002452504105,61392,25591
1694.65350470725,0.381867978881012,52055,21607
1697.56220286889,0.3824111800953,43897,18198
1701.43382430455,0.385732609463163,35447,14583
