***Scan Config Information***,,,,,,,***Reference Scan Information***,,,,,,,,
Scan Config Name:,herbario,,,,,,Scan Config Name:,Local New Reference,,,,,,,
Scan Config Type:,Slew,Num Section:,1,,,,Scan Config Type:,Slew,Num Section:,1,,,,,
Section Config Type:,Column,,,,,,Section Config Type:,Column,,,,,,,
Start Wavelength (nm):,900,,,,,,Start Wavelength (nm):,900,,,,,,,
End Wavelength (nm):,1700,,,,,,End Wavelength (nm):,1700,,,,,,,
Pattern Width (nm):,7.03,,,,,,Pattern Width (nm):,7.03,,,,,,,
Exposure (ms):,0.635,,,,,,Exposure (ms):,0.635,,,,,,,
Digital Resolution:,228,,,,,,Digital Resolution:,228,,,,,,,
Num Repeats:,20,,,,,,Num Repeats:,20,,,,,,,
PGA Gain:,64,(FixedPGA),,,,,PGA Gain:,64,(AutoPGA),,,,,,
System Temp (C):,34.51,,,,,,System Temp (C):,30,,,,,,,
Humidity (%):,41.15,,,,,,Humidity (%):,48.85,,,,,,,
Lamp Indicator:,1065,,,,,,Lamp Indicator:,1030,,,,,,,
Data Date-Time:,2023/11/13T09:16:45,,,,,,Data Date-Time:,2023/11/13T09:05:59,,,,,,,
Total Measurement Time in sec:,7.0475402,,,,,,,,,,,,,,
,,,,,,,,,,,,,,,
***General Information***,,,,,,,***Calibration Coefficients***,,,,,,,,
Model Name:,NIR-S-G1,,,,,,Shift Vector Coefficients:,-5.08535400046452,0.0413457073195706,-8.39863846568903E-05,,,,,
Serial Number:,B07R011,(95UB122GC0AB07R011),,,,,Pixel to Wavelength Coefficients:,1794.37724621797,-0.920219689099738,-0.000237242138379873,,,,,
GUI Version:,3.9.4,Revision:,526,,,,Versions (Cal/Ref/Cfg):,1,3,1,,,,,
TIVA Version:,2.4.7,,,,,,***Lamp Usage ***,,,,,,,,
DLPC Version:,2.3.1,,,,,,Total Time(hh:mm:ss):,1hr 43min 44sec ,,,,,,,
UUID:,DE:67:0C:88:67:2B:47:21,,,,,,***Device/Error/Activation Status***,,,,,,,,
Main Board Version:,D,,,,,,Device Status:,0x00000001,Activation Status:,Activated,,,,,
Detector Board Version:,B,,,,,,Error status:,0x00000000,Error Code:,0x00000000000000000000000000000000,,,,,
,,,,,,,,,Error Details:,Not found,,,,,
***Scan Data***,,,,,,,,,,,,,,,
Wavelength (nm),Absorbance (AU),Reference Signal (unitless),Sample Signal (unitless)
901.81429527209,0.204085127760861,87217,54515
905.716563509274,0.201895722660665,94962,59656
909.614561387966,0.199706198638298,102497,64715
913.508288908168,0.199226333386637,112392,71041
917.397746069878,0.197183139485537,124142,78838
921.282932873098,0.198589380339113,139309,88184
925.163849317827,0.197868387669761,157584,99918
929.040495404065,0.19606166381237,177572,113061
932.912871131812,0.19257988014046,196901,126377
938.069395988934,0.188771458697884,220364,142682
941.931807546869,0.186107862739113,235174,153208
945.789948746314,0.182240243078121,248172,163122
949.643819587268,0.181020074171806,260083,171432
953.493420069731,0.178342784314923,271132,179820
957.338750193702,0.175880272390087,281932,188046
961.179809959184,0.174553401649021,292333,195580
965.016599366174,0.17364315355437,302854,203044
968.849118414673,0.172524423670894,313032,210409
973.952501032798,0.170426640824782,325851,220086
977.775055911486,0.169937690002231,335810,227068
981.593340431682,0.168606666660979,344239,233482
985.407354593388,0.167990214701225,352340,239316
989.217098396603,0.16697747455778,359999,245089
993.022571841327,0.166149726596997,366267,249832
996.823774927561,0.165178438425638,371531,253990
1000.6207076553,0.16410492401132,377377,258625
1004.41337002455,0.163438169530724,381756,262028
1008.20176203532,0.162638713509877,385040,264769
1013.24630860312,0.162098315137172,388705,267622
1017.02473644407,0.161157431385136,390845,269679
1020.79889392653,0.160055847993817,392311,271378
1024.5687810505,0.159487548707644,393555,272595
1028.33439781597,0.159002924787013,394065,273253
1032.09574422296,0.158577259704932,394176,273598
1035.85282027145,0.158094743821709,394809,274342
1039.60562596146,0.157549388377013,394601,274542
1043.35416129297,0.156482360735271,394427,275096
1048.34556562178,0.156268387153356,394141,275032
1052.08413678348,0.156565898055701,394087,274806
1055.81843758669,0.155420656768252,393637,275217
1059.54846803141,0.1550909325694,393404,275263
1063.27422811764,0.154405692700863,393580,275821
1066.99571784538,0.154610231752112,393734,275799
1070.71293721462,0.154414370125443,394357,276360
1074.42588622538,0.154609325931847,395482,277024
1078.13456487764,0.153689643654137,396882,278594
1081.83897317142,0.15366685457909,398327,279623
1086.77154144991,0.153169187915877,400432,281423
1090.46598557387,0.153509290848285,402923,282952
1094.15615933934,0.152821006721008,405336,285098
1097.84206274632,0.152922058976275,407690,286687
1101.52369579481,0.15325798367103,410728,288600
1105.20105848481,0.153022291013731,413835,290941
1108.87415081632,0.153387013744051,417568,293319
1112.54297278934,0.153151130356456,420766,295726
1116.20752440387,0.153354835886274,424720,298365
1121.08695044336,0.154019566539306,430148,301716
1124.74153788807,0.154830274647582,434434,304154
1128.3918549743,0.154955216305682,439221,307417
1132.03790170203,0.15592889871695,443907,310001
1135.67967807127,0.15611904686114,448604,313144
1139.31718408202,0.15614358616804,453211,316342
1142.95041973428,0.157234280517915,459007,319584
1146.57938502805,0.157219662013714,463800,322932
1150.20407996333,0.158356864349377,469192,325832
1153.82450454012,0.158935313288696,474926,329375
1158.6450945293,0.160167694199904,483066,334071
1162.25555493627,0.161017921648364,488830,337396
1165.86174498476,0.161640498410095,495258,341343
1169.46366467475,0.161982222671702,501806,345584
1173.06131400625,0.163133727339739,508678,349389
1176.65469297927,0.163440994746157,515890,354092
1180.24380159379,0.16456996633944,522899,357971
1183.82863984982,0.165097479125311,531239,363239
1187.40920774736,0.165501859525006,539062,368245
1192.17665549754,0.166052422181964,549723,375052
1195.74725922527,0.165910401430718,557649,380584
1199.3135925945,0.165980515686665,566444,386524
1202.87565560525,0.166000797127582,574594,392067
1206.43344825751,0.166029881895065,583293,397976
1209.98697055127,0.165649035531021,592098,404338
1213.53622248654,0.165381952391701,600986,410660
1217.08120406333,0.164530753501796,609512,417303
1220.62191528162,0.163768528380159,618196,423992
1224.15835614142,0.162798264572162,626482,430636
1228.86696784128,0.161764355313435,637346,439148
1232.39344453127,0.161086505703241,645455,445430
1235.91565086277,0.160494518379443,653034,451275
1239.43358683578,0.160034621905197,660078,456626
1242.94725245029,0.159357389128228,666826,462014
1246.45664770632,0.159139157329536,673965,467195
1249.96177260386,0.158794608842783,679584,471464
1253.4626271429,0.158552234942564,684976,475470
1256.95921132345,0.158455044150561,690800,479620
1261.61468078432,0.157942044446033,699990,486575
1265.10130079506,0.157872545719853,707277,491719
1268.58365044731,0.157917374894238,713914,496282
1272.06172974107,0.157713902297518,720592,501159
1275.53553867634,0.157548203265841,726200,505252
1279.00507725312,0.157660788894654,731758,508987
1282.4703454714,0.157378989043136,737026,512984
1285.9313433312,0.157588126327494,741620,515933
1289.38807083251,0.157166525920603,745849,519379
1292.84052797532,0.157046766160956,749399,521995
1297.43716138587,0.156961897978456,754506,525655
1300.87965435887,0.156732699393395,757660,528131
1304.31787697338,0.157004425163465,760342,529669
1307.7518292294,0.15724847124603,762819,531096
1311.18151112693,0.157178272211572,764801,532562
1314.60692266597,0.157334760374037,766473,533534
1318.02806384652,0.157522797916195,767742,534186
1321.44493466858,0.157800496151913,768781,534567
1324.85753513215,0.158235975178418,769499,534530
1329.4010263037,0.159046045914663,770190,534013
1332.80366259745,0.159611560200157,770096,533253
1336.20202853272,0.160577994251038,769807,531868
1339.59612410949,0.161645476133686,769528,530370
1342.98594932777,0.16259849570824,768351,528398
1346.37150418756,0.163575153983064,766433,525895
1349.75278868886,0.164734114345175,764312,523042
1353.12980283167,0.166192211303667,761500,519371
1356.50254661599,0.167635875389918,759181,516071
1359.87102004182,0.168474557430563,755929,512869
1364.35567516305,0.170197799070486,753073,508908
1367.71418441907,0.171394738766922,751001,506111
1371.06842331659,0.172472570107405,748403,503110
1374.41839185563,0.173602381951347,744175,498968
1377.76409003617,0.174478104382508,738042,493859
1381.10551785823,0.176170771044534,731975,487894
1384.44267532179,0.177462037262641,725719,482288
1387.77556242686,0.179641247465574,720258,476263
1391.10417917344,0.18204335752572,715229,470329
1395.53569205567,0.185645721522286,709223,462527
1398.85434463244,0.189368595593008,705423,456122
1402.16872685072,0.193327985368493,701742,449624
1405.47883871051,0.198170984079046,698925,442853
1408.7846802118,0.203607213491736,696128,435594
1412.08625135461,0.209373361075542,693576,428273
1415.38355213892,0.215072876241273,690796,420995
1418.67658256475,0.221186972937696,689199,414150
1421.96534263208,0.22664951604696,687449,407935
1425.24983234092,0.232028844895134,686063,402101
1429.62250917284,0.237650770812923,683869,395660
1432.89703471187,0.241708568753035,683153,391570
1436.16728989241,0.244857512322908,681703,387916
1439.43327471445,0.247229685353057,680779,385280
1442.69498917801,0.248901772354433,679760,383225
1445.95243328308,0.250515797799389,679202,381490
1449.20560702965,0.251189366366253,677824,380126
1452.45451041774,0.251580124737885,676039,378784
1455.69914344733,0.251661578004885,673747,377429
1460.01867804025,0.252330794264442,670901,375256
1463.25334690003,0.252519586430398,668694,373859
1466.48374540132,0.252208710610786,665547,372366
1469.70987354412,0.251901137312623,662486,370916
1472.93173132843,0.251577328706956,659258,369384
1476.14931875425,0.250602970395908,655966,368365
1479.36263582158,0.250087334444036,652260,366719
1482.57168253042,0.249535979865326,648338,364977
1485.77645888076,0.249153426748778,644198,362966
1488.97696487262,0.248666871771757,640220,361129
1493.23766341522,0.247759866945449,633745,358224
1496.42820523726,0.247102137671445,628928,356040
1499.61447670082,0.246161772566392,624090,354067
1502.79647780588,0.245131350321969,618396,351670
1505.97420855245,0.244648029477534,613201,349104
1509.14766894053,0.24367114977906,607363,346559
1512.31685897012,0.242058306014311,601066,344242
1515.48177864122,0.241271726138067,594483,341089
1518.64242795382,0.240196098693389,588626,338566
1522.84998425743,0.238424236416023,579383,334612
1526.00066940022,0.23760293253753,572599,331320
1529.14708418453,0.237317678723449,566116,327784
1532.28922861034,0.236396749780625,557961,323748
1535.42710267766,0.235829913944182,550271,319703
1538.5607063865,0.23486299051487,542152,315688
1541.69003973684,0.234849002648607,533639,310741
1544.81510272869,0.234180441727236,525181,306287
1547.93589536205,0.234200341490535,516489,301204
1551.05241763692,0.233665138496786,507884,296551
1555.2011378902,0.233670726347694,496426,289857
1558.30769599526,0.233104306034396,487598,285074
1561.40998374183,0.233084948749159,478691,279879
1564.5080011299,0.232892490330433,469654,274717
1567.60174815948,0.23302830553433,460007,268990
1570.69122483058,0.232410957386179,450354,263720
1573.77643114318,0.232410925500988,440866,258164
1576.85736709729,0.232487100931516,431218,252470
1579.93403269291,0.231686804858174,421639,247317
1584.0296107072,0.231565429591082,408677,239781
1587.09631213301,0.231084898313083,399161,234457
1590.15874320033,0.230187798594068,390065,229588
1593.21690390916,0.229332550096379,380248,224251
1596.27079425949,0.228693449656328,371108,219183
1599.32041425134,0.228076875524071,362001,214108
1602.36576388469,0.227226704999605,352866,209114
1605.40684315956,0.226835705515913,343458,203722
1608.44365207593,0.226121967227769,334416,198685
1611.47619063381,0.22552309499916,325151,193447
1615.51293259778,0.225136340172317,313338,186585
1618.53550698585,0.224210914589959,304247,181558
1621.55381101543,0.223383985435257,295287,176547
1624.56784468652,0.222828000347374,286674,171617
1627.57760799912,0.222303112164452,277974,166610
1630.58310095323,0.222530501589985,269249,161296
1633.58432354884,0.222799688208465,260757,156112
1636.58127578597,0.222082849294002,252371,151341
1639.5739576646,0.222205978157495,243652,146071
1643.55755738958,0.222349062018899,232481,139328
1646.5402750984,0.222741182360649,224085,134175
1649.51872244873,0.223654396629016,215633,128843
1652.49289944057,0.224692836737379,206924,123344
1655.46280607392,0.22356452692904,197907,118276
1658.42844234878,0.223447570045713,188680,112792
1661.38980826515,0.222558662992405,178575,106970
1664.34690382303,0.21735160598035,166685,101052
1667.29972902242,0.212505248299855,153337,94003
1670.24828386331,0.202167600336679,138848,87171
1674.17304753796,0.190885453566245,117598,75773
1677.11163820905,0.181433233695704,101595,66902
1680.04595852164,0.175853517784509,86747,57863
1682.97600847574,0.171390035028936,73458,49505
1685.90178807136,0.171456268616785,61978,41762
1688.82329730848,0.170552648791784,52085,35169
1691.74053618711,0.172813696755274,44288,29749
1694.65350470725,0.17796096288455,37594,24955
1697.56220286889,0.181436551922774,32250,21237
1701.43382430455,0.188454046719346,26207,16981
