***Scan Config Information***,,,,,,,***Reference Scan Information***,,,,,,,,
Scan Config Name:,herbario,,,,,,Scan Config Name:,Local New Reference,,,,,,,
Scan Config Type:,Slew,Num Section:,1,,,,Scan Config Type:,Slew,Num Section:,1,,,,,
Section Config Type:,Column,,,,,,Section Config Type:,Column,,,,,,,
Start Wavelength (nm):,900,,,,,,Start Wavelength (nm):,900,,,,,,,
End Wavelength (nm):,1700,,,,,,End Wavelength (nm):,1700,,,,,,,
Pattern Width (nm):,7.03,,,,,,Pattern Width (nm):,7.03,,,,,,,
Exposure (ms):,0.635,,,,,,Exposure (ms):,0.635,,,,,,,
Digital Resolution:,228,,,,,,Digital Resolution:,228,,,,,,,
Num Repeats:,20,,,,,,Num Repeats:,20,,,,,,,
PGA Gain:,64,(FixedPGA),,,,,PGA Gain:,64,(AutoPGA),,,,,,
System Temp (C):,41.38,,,,,,System Temp (C):,41.41,,,,,,,
Humidity (%):,20.67,,,,,,Humidity (%):,20.67,,,,,,,
Lamp Indicator:,1117,,,,,,Lamp Indicator:,1126,,,,,,,
Data Date-Time:,2023/11/10T16:10:12,,,,,,Data Date-Time:,2023/11/10T16:07:27,,,,,,,
Total Measurement Time in sec:,6.7126973,,,,,,,,,,,,,,
,,,,,,,,,,,,,,,
***General Information***,,,,,,,***Calibration Coefficients***,,,,,,,,
Model Name:,NIR-S-G1,,,,,,Shift Vector Coefficients:,-5.08535400046452,0.0413457073195706,-8.39863846568903E-05,,,,,
Serial Number:,B07R011,(95UB122GC0AB07R011),,,,,Pixel to Wavelength Coefficients:,1794.37724621797,-0.920219689099738,-0.000237242138379873,,,,,
GUI Version:,3.9.4,Revision:,526,,,,Versions (Cal/Ref/Cfg):,1,3,1,,,,,
TIVA Version:,2.4.7,,,,,,***Lamp Usage ***,,,,,,,,
DLPC Version:,2.3.1,,,,,,Total Time(hh:mm:ss):,1hr 17min 9sec ,,,,,,,
UUID:,DE:67:0C:88:67:2B:47:21,,,,,,***Device/Error/Activation Status***,,,,,,,,
Main Board Version:,D,,,,,,Device Status:,0x00000001,Activation Status:,Activated,,,,,
Detector Board Version:,B,,,,,,Error status:,0x00000000,Error Code:,0x00000000000000000000000000000000,,,,,
,,,,,,,,,Error Details:,Not found,,,,,
***Scan Data***,,,,,,,,,,,,,,,
Wavelength (nm),Absorbance (AU),Reference Signal (unitless),Sample Signal (unitless)
901.81429527209,0.599343214061276,87487,22009
905.716563509274,0.591163312187682,95049,24366
909.614561387966,0.580354491561341,102461,26928
913.508288908168,0.579879156343162,111813,29418
917.397746069878,0.578154900907319,122909,32466
921.282932873098,0.576407871366227,136329,36156
925.163849317827,0.566553314387621,152913,41485
929.040495404065,0.563472625720998,171464,46849
932.912871131812,0.560745296565385,190867,52479
938.069395988934,0.554745655129607,215471,60068
941.931807546869,0.551381207118098,231552,65053
945.789948746314,0.548046103951287,245997,69644
949.643819587268,0.542615968075791,258575,74126
953.493420069731,0.539919686125321,270429,78007
957.338750193702,0.535994652915594,281690,81993
961.179809959184,0.532320611266585,292739,85933
965.016599366174,0.527429695677302,302692,89861
968.849118414673,0.524816329069217,313077,93505
973.952501032798,0.519532987246552,326280,98641
977.775055911486,0.516022117797141,336072,102426
981.593340431682,0.51220803509666,344569,105942
985.407354593388,0.509299969350976,352611,109143
989.217098396603,0.505160350058462,360111,112532
993.022571841327,0.501266456273808,366167,115455
996.823774927561,0.498467279754804,371664,117946
1000.6207076553,0.494947069521918,377625,120813
1004.41337002455,0.492550679607924,382078,122914
1008.20176203532,0.489460258908253,385659,124952
1013.24630860312,0.485221035115545,389120,127310
1017.02473644407,0.481208242979623,391395,129243
1020.79889392653,0.47816993103197,393075,130709
1024.5687810505,0.475291856733536,394198,131954
1028.33439781597,0.4729138108062,394758,132867
1032.09574422296,0.470061156612449,394830,133767
1035.85282027145,0.466078171727034,395361,135181
1039.60562596146,0.463546282801111,395072,135872
1043.35416129297,0.460578880856343,395287,136878
1048.34556562178,0.458024655744195,394571,137436
1052.08413678348,0.455975667827689,394594,138094
1055.81843758669,0.453114082147585,394106,138835
1059.54846803141,0.450263148333609,394088,139743
1063.27422811764,0.44748780684883,394178,140671
1066.99571784538,0.445079935982285,393874,141344
1070.71293721462,0.44317882958946,394609,142229
1074.42588622538,0.440465872367407,395554,143463
1078.13456487764,0.437861433954753,397089,144886
1081.83897317142,0.436006512589401,398857,146154
1086.77154144991,0.433279234682593,400607,147720
1090.46598557387,0.431428501281922,403216,149317
1094.15615933934,0.429002206748661,405814,151121
1097.84206274632,0.426064239001561,407783,152885
1101.52369579481,0.424781053873987,411178,154614
1105.20105848481,0.422769572666639,414371,156538
1108.87415081632,0.420424671241906,418032,158776
1112.54297278934,0.419442017485925,421482,160449
1116.20752440387,0.417179772393025,425172,162699
1121.08695044336,0.415360972615441,431098,165659
1124.74153788807,0.412839068714865,435039,168147
1128.3918549743,0.410669849906531,439969,170904
1132.03790170203,0.410218251395675,444938,173014
1135.67967807127,0.407659532579771,449383,175775
1139.31718408202,0.406663217316413,454878,178333
1142.95041973428,0.405456964335646,460095,180880
1146.57938502805,0.403910687646658,465141,183516
1150.20407996333,0.402043435345124,470598,186469
1153.82450454012,0.401026496763006,476580,189282
1158.6450945293,0.400102542379821,484695,192915
1162.25555493627,0.398123328718263,490497,196116
1165.86174498476,0.39761518760218,497188,199024
1169.46366467475,0.395952119850609,503948,202504
1173.06131400625,0.394356122551093,510599,205932
1176.65469297927,0.39325391837353,518134,209502
1180.24380159379,0.392352422038241,524982,212712
1183.82863984982,0.391333904357333,533163,216534
1187.40920774736,0.389851942752943,541096,220507
1192.17665549754,0.38843181757831,551845,225624
1195.74725922527,0.387956871351505,560201,229291
1199.3135925945,0.386058552197904,568833,233844
1202.87565560525,0.385277575279194,577157,237693
1206.43344825751,0.383601715514204,585202,241938
1209.98697055127,0.382450405956648,594330,246364
1213.53622248654,0.381103410891183,603064,250761
1217.08120406333,0.379974229574915,611479,254922
1220.62191528162,0.378648952956645,620071,259294
1224.15835614142,0.377248263841526,628236,263557
1228.86696784128,0.376064970039467,639121,268855
1232.39344453127,0.374429268969177,646909,273158
1235.91565086277,0.373526796433746,654483,276931
1239.43358683578,0.372118882951987,661526,280820
1242.94725245029,0.370949197303011,668195,284416
1246.45664770632,0.370174298938189,674832,287754
1249.96177260386,0.368724522029062,680329,291068
1253.4626271429,0.368073639056435,686132,293991
1256.95921132345,0.366814976788941,691742,297255
1261.61468078432,0.36577393224897,701062,301983
1265.10130079506,0.364873176194974,708318,305742
1268.58365044731,0.363654932261315,714787,309401
1272.06172974107,0.362883739782186,721249,312753
1275.53553867634,0.362289571359687,727135,315737
1279.00507725312,0.361054816418086,732162,318825
1282.4703454714,0.360435183443259,737367,321550
1285.9313433312,0.359465462209418,742193,324378
1289.38807083251,0.358348385968285,746074,326914
1292.84052797532,0.357872403334158,749693,328860
1297.43716138587,0.356837970817219,754432,331728
1300.87965435887,0.356019070821688,757696,333792
1304.31787697338,0.35554401819796,760253,335285
1307.7518292294,0.354799173475078,762366,336794
1311.18151112693,0.353785204401569,764486,338520
1314.60692266597,0.353451493769296,766539,339690
1318.02806384652,0.353215521641105,767336,340228
1321.44493466858,0.352393482153126,768566,341419
1324.85753513215,0.35195612207947,769036,341972
1329.4010263037,0.351614700419813,769699,342536
1332.80366259745,0.351309244522909,769571,342720
1336.20202853272,0.351220260758079,769227,342637
1339.59612410949,0.351151416722741,768820,342510
1342.98594932777,0.350855622086893,767738,342261
1346.37150418756,0.351229037615071,766306,341329
1349.75278868886,0.351067079565419,764088,340468
1353.12980283167,0.350905299245297,761145,339283
1356.50254661599,0.351152928420185,759312,338273
1359.87102004182,0.351025957337383,755917,336859
1364.35567516305,0.351523735210782,753596,335440
1367.71418441907,0.350936918030037,751423,334925
1371.06842331659,0.351290252128695,748433,333321
1374.41839185563,0.351159109134174,743134,331061
1377.76409003617,0.351755028189143,737447,328077
1381.10551785823,0.352003238124871,731425,325212
1384.44267532179,0.352981548531391,725460,321834
1387.77556242686,0.35401210674028,719804,318568
1391.10417917344,0.355093358410985,714778,315557
1395.53569205567,0.357439679239009,708896,311274
1398.85434463244,0.35946924275152,705254,308231
1402.16872685072,0.361654111851807,701535,305067
1405.47883871051,0.364525383617036,698517,301753
1408.7846802118,0.36692594986072,695543,298812
1412.08625135461,0.370399168257037,693129,295403
1415.38355213892,0.373660977809082,690735,292180
1418.67658256475,0.377044039341266,688908,289146
1421.96534263208,0.379964831337431,687174,286485
1425.24983234092,0.38188809883828,685945,284709
1429.62250917284,0.384802126308193,683466,281783
1432.89703471187,0.386364788073886,682955,280561
1436.16728989241,0.387899208433535,681449,278955
1439.43327471445,0.388208397038914,680448,278347
1442.69498917801,0.388695602914417,679807,277773
1445.95243328308,0.389093812224356,678978,277180
1449.20560702965,0.389350212984971,677901,276577
1452.45451041774,0.389057427809761,675999,275987
1455.69914344733,0.388634400841481,673349,275173
1460.01867804025,0.388154843935915,670626,274363
1463.25334690003,0.387478961120104,668358,273861
1466.48374540132,0.387182595521827,664934,272644
1469.70987354412,0.386335709946256,661723,271857
1472.93173132843,0.386018316515622,658727,270824
1476.14931875425,0.385025221986048,655497,270113
1479.36263582158,0.384563187486556,651891,268913
1482.57168253042,0.383496499300003,647581,267792
1485.77645888076,0.383130607447478,643984,266529
1488.97696487262,0.381914252824383,639812,265545
1493.23766341522,0.381018727506349,633298,263384
1496.42820523726,0.379844714166606,628200,261971
1499.61447670082,0.378807385481495,623400,260591
1502.79647780588,0.377815617318864,617930,258895
1505.97420855245,0.376619553102178,612177,257192
1509.14766894053,0.375640878387147,606472,255370
1512.31685897012,0.3750178346061,600779,253336
1515.48177864122,0.374121745024936,594178,251070
1518.64242795382,0.373005481185445,587868,249043
1522.84998425743,0.372643585373769,578864,245433
1526.00066940022,0.37132495393592,572237,243361
1529.14708418453,0.370669166045578,564917,240611
1532.28922861034,0.370383006548358,557445,237585
1535.42710267766,0.369398144421258,549562,234757
1538.5607063865,0.369424518357435,541570,231329
1541.69003973684,0.368175133727001,532913,228287
1544.81510272869,0.368202033183232,524572,224700
1547.93589536205,0.367282182058062,515828,221423
1551.05241763692,0.366724028737779,507141,217974
1555.2011378902,0.365716461333536,495258,213361
1558.30769599526,0.365742487372383,486889,209743
1561.40998374183,0.365971213011703,477890,205758
1564.5080011299,0.364964525079895,469007,202402
1567.60174815948,0.36494569529716,459563,198335
1570.69122483058,0.364223240953743,450099,194574
1573.77643114318,0.363930762173831,440570,190583
1576.85736709729,0.363581100289671,431050,186615
1579.93403269291,0.362851459267731,421573,182819
1584.0296107072,0.361253239351438,408452,177782
1587.09631213301,0.360948120174742,398837,173719
1590.15874320033,0.360066956769829,389755,170108
1593.21690390916,0.359419901665397,379948,166075
1596.27079425949,0.358980319912423,371137,162388
1599.32041425134,0.358706798937186,361911,158451
1602.36576388469,0.357239357927303,353028,155085
1605.40684315956,0.356683621179918,343892,151265
1608.44365207593,0.356151874626971,334409,147274
1611.47619063381,0.355261649289228,325766,143762
1615.51293259778,0.355638396596579,313940,138423
1618.53550698585,0.353810708848385,304848,134981
1621.55381101543,0.354833170465882,296396,130930
1624.56784468652,0.353148154452172,287597,127537
1627.57760799912,0.352547286482574,279016,123903
1630.58310095323,0.350829177109539,270102,120420
1633.58432354884,0.35112401402776,261754,116619
1636.58127578597,0.350604626262564,253514,113083
1639.5739576646,0.351116133329338,245479,109370
1643.55755738958,0.350668048647176,234450,104564
1646.5402750984,0.351305437619826,226183,100729
1649.51872244873,0.35156892682057,218553,97272
1652.49289944057,0.350468160602502,210037,93719
1655.46280607392,0.349776306244145,202623,90555
1658.42844234878,0.351017994382197,194878,86845
1661.38980826515,0.350846611701766,186966,83352
1664.34690382303,0.35235347656419,179130,79582
1667.29972902242,0.354484821214998,170269,75275
1670.24828386331,0.353802054899812,161196,71376
1674.17304753796,0.353618755738102,146520,64905
1677.11163820905,0.35579464149269,134376,59228
1680.04595852164,0.356601522251173,120931,53203
1682.97600847574,0.356352456109151,106952,47080
1685.90178807136,0.362220043195018,93228,40488
1688.82329730848,0.360068035703663,80044,34935
1691.74053618711,0.365935892174821,68218,29374
1694.65350470725,0.360094365632784,57692,25178
1697.56220286889,0.369170473606413,49184,21021
1701.43382430455,0.362832865283344,39391,17083
