***Scan Config Information***,,,,,,,***Reference Scan Information***,,,,,,,,
Scan Config Name:,herbario,,,,,,Scan Config Name:,Local New Reference,,,,,,,
Scan Config Type:,Slew,Num Section:,1,,,,Scan Config Type:,Slew,Num Section:,1,,,,,
Section Config Type:,Column,,,,,,Section Config Type:,Column,,,,,,,
Start Wavelength (nm):,900,,,,,,Start Wavelength (nm):,900,,,,,,,
End Wavelength (nm):,1700,,,,,,End Wavelength (nm):,1700,,,,,,,
Pattern Width (nm):,7.03,,,,,,Pattern Width (nm):,7.03,,,,,,,
Exposure (ms):,0.635,,,,,,Exposure (ms):,0.635,,,,,,,
Digital Resolution:,228,,,,,,Digital Resolution:,228,,,,,,,
Num Repeats:,20,,,,,,Num Repeats:,20,,,,,,,
PGA Gain:,64,(FixedPGA),,,,,PGA Gain:,64,(AutoPGA),,,,,,
System Temp (C):,39.86,,,,,,System Temp (C):,40.02,,,,,,,
Humidity (%):,20.41,,,,,,Humidity (%):,20.42,,,,,,,
Lamp Indicator:,1105,,,,,,Lamp Indicator:,1114,,,,,,,
Data Date-Time:,2023/11/13T13:38:08,,,,,,Data Date-Time:,2023/11/13T13:34:52,,,,,,,
Total Measurement Time in sec:,6.79527,,,,,,,,,,,,,,
,,,,,,,,,,,,,,,
***General Information***,,,,,,,***Calibration Coefficients***,,,,,,,,
Model Name:,NIR-S-G1,,,,,,Shift Vector Coefficients:,-5.08535400046452,0.0413457073195706,-8.39863846568903E-05,,,,,
Serial Number:,B07R011,(95UB122GC0AB07R011),,,,,Pixel to Wavelength Coefficients:,1794.37724621797,-0.920219689099738,-0.000237242138379873,,,,,
GUI Version:,3.9.4,Revision:,526,,,,Versions (Cal/Ref/Cfg):,1,3,1,,,,,
TIVA Version:,2.4.7,,,,,,***Lamp Usage ***,,,,,,,,
DLPC Version:,2.3.1,,,,,,Total Time(hh:mm:ss):,2hr 4min 48sec ,,,,,,,
UUID:,DE:67:0C:88:67:2B:47:21,,,,,,***Device/Error/Activation Status***,,,,,,,,
Main Board Version:,D,,,,,,Device Status:,0x00000001,Activation Status:,Activated,,,,,
Detector Board Version:,B,,,,,,Error status:,0x00000000,Error Code:,0x00000000000000000000000000000000,,,,,
,,,,,,,,,Error Details:,Not found,,,,,
***Scan Data***,,,,,,,,,,,,,,,
Wavelength (nm),Absorbance (AU),Reference Signal (unitless),Sample Signal (unitless)
901.81429527209,0.167766987111549,86140,58538
905.716563509274,0.169007219025156,93613,63435
909.614561387966,0.169483795383083,101203,68503
913.508288908168,0.168332654920831,110178,74776
917.397746069878,0.167570604515095,121131,82354
921.282932873098,0.16788749623345,134430,91329
925.163849317827,0.16642984570696,150630,102679
929.040495404065,0.16707310718224,169525,115388
932.912871131812,0.166214130735463,188319,128434
938.069395988934,0.166425578874723,212503,144857
941.931807546869,0.165847265822708,228611,156045
945.789948746314,0.165954912174436,242586,165543
949.643819587268,0.167056560494023,255030,173594
953.493420069731,0.167010027423361,266440,181380
957.338750193702,0.166470319120356,277698,189279
961.179809959184,0.167001986878227,288472,196382
965.016599366174,0.166826755090651,298565,203335
968.849118414673,0.168017865408435,308817,209741
973.952501032798,0.167468449928231,321620,218713
977.775055911486,0.167436721175434,331260,225285
981.593340431682,0.168280587948793,339745,230607
985.407354593388,0.168283001393146,347816,236084
989.217098396603,0.168011145552813,355125,241196
993.022571841327,0.168282142735824,361446,245336
996.823774927561,0.168640322219854,366958,248872
1000.6207076553,0.168794671778122,372633,252631
1004.41337002455,0.168545052838773,377005,255742
1008.20176203532,0.168567691067467,380610,258174
1013.24630860312,0.16856344045001,384025,260493
1017.02473644407,0.168393008868571,386241,262099
1020.79889392653,0.16886380930358,388265,263187
1024.5687810505,0.168747877864948,389092,263818
1028.33439781597,0.168236995664601,389816,264620
1032.09574422296,0.168010622628996,389579,264597
1035.85282027145,0.168300517459529,390178,264827
1039.60562596146,0.16867854306657,390127,264562
1043.35416129297,0.168356586692535,390305,264879
1048.34556562178,0.168479977573297,389732,264415
1052.08413678348,0.168844570266665,389484,264025
1055.81843758669,0.168542288129852,389042,263909
1059.54846803141,0.168526031976451,388967,263868
1063.27422811764,0.168538111542079,389053,263919
1066.99571784538,0.169019569202036,389213,263735
1070.71293721462,0.168278592711383,389569,264427
1074.42588622538,0.168492432375699,390688,265056
1078.13456487764,0.168653507005865,391784,265701
1081.83897317142,0.169013637088994,393601,266712
1086.77154144991,0.169051929658059,395882,268234
1090.46598557387,0.168932090358052,397865,269652
1094.15615933934,0.168958971993143,400615,271499
1097.84206274632,0.16825734951471,402595,273282
1101.52369579481,0.168263617460549,405587,275309
1105.20105848481,0.168306332485683,408883,277519
1108.87415081632,0.168313713545692,412678,280090
1112.54297278934,0.167552424337902,415694,282632
1116.20752440387,0.168094026399003,419588,284924
1121.08695044336,0.168005667065139,425071,288706
1124.74153788807,0.168536071700904,429292,291217
1128.3918549743,0.168921767178718,433784,294003
1132.03790170203,0.168788752169539,438526,297308
1135.67967807127,0.169267039067574,443411,300289
1139.31718408202,0.169272304451154,448369,303643
1142.95041973428,0.169512289656135,453290,306806
1146.57938502805,0.170184983038199,458861,310096
1150.20407996333,0.170743706708578,464150,313267
1153.82450454012,0.171107171808845,469920,316896
1158.6450945293,0.171661536134497,477760,321772
1162.25555493627,0.172238408312286,483841,325435
1165.86174498476,0.173007402174935,490169,329108
1169.46366467475,0.173189957461047,496803,333422
1173.06131400625,0.173643651280615,503739,337724
1176.65469297927,0.17394147720009,510849,342256
1180.24380159379,0.174183500340416,517554,346555
1183.82863984982,0.173970908024102,525415,351991
1187.40920774736,0.174931066166178,533642,356713
1192.17665549754,0.175166664194344,544053,363475
1195.74725922527,0.174779734984454,551834,369002
1199.3135925945,0.175033424019532,560334,374467
1202.87565560525,0.175262976527532,568881,379978
1206.43344825751,0.175308923397183,577088,385419
1209.98697055127,0.17504222643457,585923,391560
1213.53622248654,0.174656065438289,594389,397571
1217.08120406333,0.174626411682673,603055,403395
1220.62191528162,0.174386299755981,611283,409125
1224.15835614142,0.173513832018571,619331,415345
1228.86696784128,0.173175179732457,630166,422941
1232.39344453127,0.173033529739373,637886,428262
1235.91565086277,0.172331736820758,645258,433912
1239.43358683578,0.172370163995251,652299,438608
1242.94725245029,0.171982262451187,658990,443503
1246.45664770632,0.172031852013781,665907,448107
1249.96177260386,0.171775091630703,671463,452113
1253.4626271429,0.171122336764184,676671,456305
1256.95921132345,0.171290788567056,682378,459975
1261.61468078432,0.171237992099446,691465,466157
1265.10130079506,0.171117581454812,698550,471064
1268.58365044731,0.170903054141669,705155,475753
1272.06172974107,0.170954656191987,711693,480107
1275.53553867634,0.170811330686287,717399,484116
1279.00507725312,0.170599192705829,722326,487679
1282.4703454714,0.170614930832136,727449,491120
1285.9313433312,0.170264823215926,732253,494762
1289.38807083251,0.170336260151434,736231,497368
1292.84052797532,0.17028198122548,739777,499826
1297.43716138587,0.169841422364422,744576,503579
1300.87965435887,0.170075254118676,747773,505469
1304.31787697338,0.170019824440836,750346,507273
1307.7518292294,0.170138894775095,752780,508779
1311.18151112693,0.170094864934858,754695,510125
1314.60692266597,0.169825132121046,756113,511401
1318.02806384652,0.170487447687637,757535,511582
1321.44493466858,0.170710373849873,758401,511904
1324.85753513215,0.170975201509779,759421,512280
1329.4010263037,0.171696117203135,759863,511728
1332.80366259745,0.172371767650667,760008,511030
1336.20202853272,0.172936090159668,759446,509989
1339.59612410949,0.173783653342682,759066,508740
1342.98594932777,0.174734336577986,758153,507017
1346.37150418756,0.176016348258954,756507,504425
1349.75278868886,0.17705889173374,754636,501971
1353.12980283167,0.178061013337458,752112,499139
1356.50254661599,0.17874875381903,749620,496698
1359.87102004182,0.180117669520896,746995,493401
1364.35567516305,0.181041398561079,744260,490550
1367.71418441907,0.181893213467201,742164,488210
1371.06842331659,0.182768117971343,739359,485386
1374.41839185563,0.183361736337351,734751,481702
1377.76409003617,0.184238633951784,728996,476965
1381.10551785823,0.185487060785731,722750,471521
1384.44267532179,0.186593221215911,716862,466490
1387.77556242686,0.188373473569468,711161,460887
1391.10417917344,0.190069832687384,706044,455787
1395.53569205567,0.1934849840526,700347,448568
1398.85434463244,0.196573938936063,696630,443025
1402.16872685072,0.200284932939527,693332,437176
1405.47883871051,0.204605989015232,690244,430920
1408.7846802118,0.209439055688535,687526,424473
1412.08625135461,0.214523650905052,684805,417872
1415.38355213892,0.219567802957871,682569,411698
1418.67658256475,0.224283686043245,680384,405948
1421.96534263208,0.228990844821216,678712,400585
1425.24983234092,0.233709774265505,677395,395487
1429.62250917284,0.238681977489459,675375,389819
1432.89703471187,0.242132683590186,675059,386553
1436.16728989241,0.244316700250953,672988,383434
1439.43327471445,0.246406250429039,672539,381339
1442.69498917801,0.248202230624195,671352,379095
1445.95243328308,0.249473453539326,670805,377679
1449.20560702965,0.25010337029709,669429,376358
1452.45451041774,0.250675114061994,667593,374832
1455.69914344733,0.251010105967056,665365,373293
1460.01867804025,0.251237594689821,662780,371648
1463.25334690003,0.251216901597656,660086,370155
1466.48374540132,0.250931567817968,657170,368762
1469.70987354412,0.250613354230642,654265,367401
1472.93173132843,0.250345774268693,651374,366003
1476.14931875425,0.249607408953766,647869,364653
1479.36263582158,0.24847612637324,644128,363493
1482.57168253042,0.247758454831652,640432,362005
1485.77645888076,0.247038611043619,636360,360300
1488.97696487262,0.246522809894633,632394,358480
1493.23766341522,0.245589675363864,626055,355650
1496.42820523726,0.244554658391925,621265,353771
1499.61447670082,0.243649080857701,616303,351678
1502.79647780588,0.242311961575466,610778,349600
1505.97420855245,0.241538745056356,605438,347161
1509.14766894053,0.240477241386052,599943,344852
1512.31685897012,0.239228041752484,593602,342190
1515.48177864122,0.238045208354148,587294,339477
1518.64242795382,0.237359761059856,581243,336510
1522.84998425743,0.23643895844945,572497,332150
1526.00066940022,0.235085521481139,565664,329210
1529.14708418453,0.235002481778073,558667,325200
1532.28922861034,0.234390590815042,551214,321314
1535.42710267766,0.233608962043594,543404,317332
1538.5607063865,0.232930645305687,535057,312946
1541.69003973684,0.23287776309354,527075,308315
1544.81510272869,0.232281356642577,518852,303922
1547.93589536205,0.232405211896715,510547,298972
1551.05241763692,0.231085535846321,501507,294572
1555.2011378902,0.231162671015721,490281,287927
1558.30769599526,0.230754459015248,481459,283012
1561.40998374183,0.230368621646699,472652,278082
1564.5080011299,0.230030905970277,463769,273068
1567.60174815948,0.229438847166576,454372,267900
1570.69122483058,0.229591457331119,445117,262351
1573.77643114318,0.229330357428972,435727,256971
1576.85736709729,0.228749343405063,426361,251784
1579.93403269291,0.228706177063672,416874,246206
1584.0296107072,0.227233433883885,403961,239390
1587.09631213301,0.227248802764202,394618,233845
1590.15874320033,0.226248252149947,385716,229097
1593.21690390916,0.225643258827983,375900,223578
1596.27079425949,0.224520305869515,367435,219109
1599.32041425134,0.223948505542629,357923,213718
1602.36576388469,0.222958162112913,349109,208931
1605.40684315956,0.22233877050312,340227,203906
1608.44365207593,0.221077791516358,330937,198915
1611.47619063381,0.220699130859448,322191,193827
1615.51293259778,0.219721849174557,310494,187211
1618.53550698585,0.219295689362484,301789,182141
1621.55381101543,0.217808890784083,292939,177406
1624.56784468652,0.21764339423173,284543,172387
1627.57760799912,0.216916849138952,275899,167430
1630.58310095323,0.217175198302294,267237,162077
1633.58432354884,0.216672309907732,258927,157219
1636.58127578597,0.21721810909006,250696,152030
1639.5739576646,0.217410454993646,242570,147037
1643.55755738958,0.218305851913464,231631,140117
1646.5402750984,0.219013055153765,223688,135092
1649.51872244873,0.220651937118509,216097,130016
1652.49289944057,0.221664860230372,207787,124725
1655.46280607392,0.222942256189527,200287,119870
1658.42844234878,0.225105545465351,192656,114730
1661.38980826515,0.225865573188623,184581,109729
1664.34690382303,0.227252702301945,176479,104578
1667.29972902242,0.228361090561537,167525,99019
1670.24828386331,0.228707770731268,158419,93562
1674.17304753796,0.230226081730077,143403,84398
1677.11163820905,0.23054330952435,130687,76858
1680.04595852164,0.23192916713484,116764,68451
1682.97600847574,0.23197344674085,102734,60220
1685.90178807136,0.233457546219053,89083,52040
1688.82329730848,0.231469909827883,76145,44686
1691.74053618711,0.234056352146706,64688,37737
1694.65350470725,0.237729453557817,55088,31866
1697.56220286889,0.242026565874094,46639,26713
1701.43382430455,0.244842584949967,37562,21375
