***Scan Config Information***,,,,,,,***Reference Scan Information***,,,,,,,,
Scan Config Name:,herbario,,,,,,Scan Config Name:,Local New Reference,,,,,,,
Scan Config Type:,Slew,Num Section:,1,,,,Scan Config Type:,Slew,Num Section:,1,,,,,
Section Config Type:,Column,,,,,,Section Config Type:,Column,,,,,,,
Start Wavelength (nm):,900,,,,,,Start Wavelength (nm):,900,,,,,,,
End Wavelength (nm):,1700,,,,,,End Wavelength (nm):,1700,,,,,,,
Pattern Width (nm):,7.03,,,,,,Pattern Width (nm):,7.03,,,,,,,
Exposure (ms):,0.635,,,,,,Exposure (ms):,0.635,,,,,,,
Digital Resolution:,228,,,,,,Digital Resolution:,228,,,,,,,
Num Repeats:,20,,,,,,Num Repeats:,20,,,,,,,
PGA Gain:,64,(FixedPGA),,,,,PGA Gain:,64,(AutoPGA),,,,,,
System Temp (C):,41.48,,,,,,System Temp (C):,41.23,,,,,,,
Humidity (%):,18.68,,,,,,Humidity (%):,18.67,,,,,,,
Lamp Indicator:,1122,,,,,,Lamp Indicator:,1123,,,,,,,
Data Date-Time:,2023/11/10T18:34:15,,,,,,Data Date-Time:,2023/11/10T18:31:13,,,,,,,
Total Measurement Time in sec:,6.7435381,,,,,,,,,,,,,,
,,,,,,,,,,,,,,,
***General Information***,,,,,,,***Calibration Coefficients***,,,,,,,,
Model Name:,NIR-S-G1,,,,,,Shift Vector Coefficients:,-5.08535400046452,0.0413457073195706,-8.39863846568903E-05,,,,,
Serial Number:,B07R011,(95UB122GC0AB07R011),,,,,Pixel to Wavelength Coefficients:,1794.37724621797,-0.920219689099738,-0.000237242138379873,,,,,
GUI Version:,3.9.4,Revision:,526,,,,Versions (Cal/Ref/Cfg):,1,3,1,,,,,
TIVA Version:,2.4.7,,,,,,***Lamp Usage ***,,,,,,,,
DLPC Version:,2.3.1,,,,,,Total Time(hh:mm:ss):,1hr 35min 11sec ,,,,,,,
UUID:,DE:67:0C:88:67:2B:47:21,,,,,,***Device/Error/Activation Status***,,,,,,,,
Main Board Version:,D,,,,,,Device Status:,0x00000001,Activation Status:,Activated,,,,,
Detector Board Version:,B,,,,,,Error status:,0x00000000,Error Code:,0x00000000000000000000000000000000,,,,,
,,,,,,,,,Error Details:,Not found,,,,,
***Scan Data***,,,,,,,,,,,,,,,
Wavelength (nm),Absorbance (AU),Reference Signal (unitless),Sample Signal (unitless)
901.81429527209,0.209781606626134,86660,53461
905.716563509274,0.208329679213797,93880,58109
909.614561387966,0.205743759155078,101396,63136
913.508288908168,0.208821969302958,110565,68359
917.397746069878,0.207080473013662,121114,75182
921.282932873098,0.207607686118753,134624,83467
925.163849317827,0.205922093373776,150643,93762
929.040495404065,0.207278082663681,169376,105093
932.912871131812,0.207312451654769,188586,117003
938.069395988934,0.207062640568295,212652,132010
941.931807546869,0.20735186969774,228889,141995
945.789948746314,0.207244459413465,243201,150911
949.643819587268,0.206940072215734,255637,158739
953.493420069731,0.206874181302701,267396,166066
957.338750193702,0.207077336840408,278556,172916
961.179809959184,0.207005855002606,289358,179651
965.016599366174,0.20818019309938,299675,185554
968.849118414673,0.207815004667548,309891,192041
973.952501032798,0.208965066022437,322925,199589
977.775055911486,0.208258150190103,332334,205739
981.593340431682,0.208619549933411,341006,210932
985.407354593388,0.207942943762391,348788,216082
989.217098396603,0.208367279700977,356285,220511
993.022571841327,0.208035596629246,362542,224555
996.823774927561,0.208093035133305,367954,227877
1000.6207076553,0.208099261486105,373740,231457
1004.41337002455,0.208119611684628,378174,234192
1008.20176203532,0.20807293891975,381537,236300
1013.24630860312,0.20784863343606,384850,238475
1017.02473644407,0.20790278616751,387482,240076
1020.79889392653,0.208042019028852,389203,241065
1024.5687810505,0.207876728172233,390367,241878
1028.33439781597,0.208072989037267,390847,242066
1032.09574422296,0.207700135156095,391073,242414
1035.85282027145,0.20713295395985,391286,242863
1039.60562596146,0.207548529105428,391330,242658
1043.35416129297,0.207754649491546,391519,242660
1048.34556562178,0.207552287158201,390827,242344
1052.08413678348,0.20752868027636,390709,242284
1055.81843758669,0.207273554122594,390183,242100
1059.54846803141,0.206935729425462,390250,242330
1063.27422811764,0.206561621957525,390239,242532
1066.99571784538,0.20714934997139,390384,242294
1070.71293721462,0.207204691881396,390893,242579
1074.42588622538,0.206609623965133,391798,243474
1078.13456487764,0.206955837175934,393146,244117
1081.83897317142,0.206937356426701,395036,245301
1086.77154144991,0.206690933969501,396893,246594
1090.46598557387,0.206212899643207,399249,248331
1094.15615933934,0.206345085753899,401770,249823
1097.84206274632,0.206495290800368,404076,251170
1101.52369579481,0.206228655823117,407050,253174
1105.20105848481,0.206002411477221,410444,255418
1108.87415081632,0.206251864774905,413902,257422
1112.54297278934,0.2065537667971,417263,259332
1116.20752440387,0.20647666658415,421341,261913
1121.08695044336,0.205960610251518,426413,265381
1124.74153788807,0.206883860829708,430842,267568
1128.3918549743,0.206828925779371,435756,270654
1132.03790170203,0.20708367781928,440234,273275
1135.67967807127,0.20752995551297,445160,276049
1139.31718408202,0.207281452429939,449958,279184
1142.95041973428,0.207984956068973,455172,281962
1146.57938502805,0.208189226235103,460711,285259
1150.20407996333,0.208551776312337,465709,288113
1153.82450454012,0.208630798760362,471567,291684
1158.6450945293,0.209913701524271,479975,296009
1162.25555493627,0.210050177399378,485652,299416
1165.86174498476,0.210634942068544,492233,303065
1169.46366467475,0.210817996146471,498810,306985
1173.06131400625,0.211054311799801,505578,310981
1176.65469297927,0.211136382822131,512503,315181
1180.24380159379,0.211964161811183,519929,319139
1183.82863984982,0.212355270047473,528019,323813
1187.40920774736,0.212349726927436,535968,328692
1192.17665549754,0.213083701751874,546353,334495
1195.74725922527,0.213106360058378,554570,339508
1199.3135925945,0.213181755077465,563263,344770
1202.87565560525,0.213168760079888,571047,349545
1206.43344825751,0.213513097329836,579719,354572
1209.98697055127,0.213492341739305,588577,360007
1213.53622248654,0.21371531559664,597251,365125
1217.08120406333,0.213479577994164,605590,370424
1220.62191528162,0.213043284708182,614092,376002
1224.15835614142,0.212990924114233,622299,381073
1228.86696784128,0.212826023718898,632928,387729
1232.39344453127,0.212994480772533,640661,392314
1235.91565086277,0.21247735356283,648010,397287
1239.43358683578,0.212516759958332,655380,401769
1242.94725245029,0.212290979379425,661887,405969
1246.45664770632,0.212401482500918,668608,409987
1249.96177260386,0.212130612780809,673897,413488
1253.4626271429,0.212261966718676,679396,416736
1256.95921132345,0.212378994872899,685254,420216
1261.61468078432,0.212236817737946,694281,425891
1265.10130079506,0.212019095597945,701477,430521
1268.58365044731,0.212701866473771,708423,434101
1272.06172974107,0.212139620627905,714707,438519
1275.53553867634,0.21216752201196,720117,441810
1279.00507725312,0.21209700844897,725171,444983
1282.4703454714,0.212440905975229,730485,447889
1285.9313433312,0.212034490228905,735011,451086
1289.38807083251,0.211990146012996,738970,453562
1292.84052797532,0.211971601145736,742508,455753
1297.43716138587,0.211726011477423,747201,458893
1300.87965435887,0.211952468699194,750471,460661
1304.31787697338,0.212292476551667,753206,461978
1307.7518292294,0.21199314980219,755434,463664
1311.18151112693,0.212127106887974,757230,464623
1314.60692266597,0.212244493887783,759404,465831
1318.02806384652,0.212317157015977,760105,466183
1321.44493466858,0.212717593761109,761175,466409
1324.85753513215,0.212929735138577,761960,466662
1329.4010263037,0.213636617552492,762619,466306
1332.80366259745,0.214009008172117,762918,466089
1336.20202853272,0.214472672341785,762173,465137
1339.59612410949,0.215157333362058,762120,464372
1342.98594932777,0.215667509455168,761049,463175
1346.37150418756,0.216776843839126,759289,460925
1349.75278868886,0.217458221828111,757221,458949
1353.12980283167,0.218329071135171,754674,456489
1356.50254661599,0.218892182273178,752455,454557
1359.87102004182,0.219945891157587,749849,451885
1364.35567516305,0.22079957224421,747083,449334
1367.71418441907,0.221026148016848,744763,447705
1371.06842331659,0.22177111573187,742089,445333
1374.41839185563,0.222492167157542,737400,441785
1377.76409003617,0.222811748492544,731400,437868
1381.10551785823,0.223772639086748,725244,433223
1384.44267532179,0.224534834991295,719176,428845
1387.77556242686,0.225972009402156,713709,424179
1391.10417917344,0.22740503936382,708603,419757
1395.53569205567,0.229875412979789,702878,414004
1398.85434463244,0.232244388349898,699133,409558
1402.16872685072,0.235212906304681,695520,404666
1405.47883871051,0.238424127921534,692542,399965
1408.7846802118,0.241893720025293,689815,395220
1412.08625135461,0.246174794031245,687234,389879
1415.38355213892,0.250044133904263,684604,384942
1418.67658256475,0.254150539559861,682939,380392
1421.96534263208,0.258043763044714,681147,376008
1425.24983234092,0.262367562392716,679760,371525
1429.62250917284,0.266066398427595,677966,367402
1432.89703471187,0.269043144569187,677237,364500
1436.16728989241,0.270810367616036,675508,362093
1439.43327471445,0.27268526801103,674895,360206
1442.69498917801,0.273657940749096,673691,358759
1445.95243328308,0.274558291674304,673070,357686
1449.20560702965,0.274918779840772,671917,356777
1452.45451041774,0.274837356157059,669797,355718
1455.69914344733,0.274900516154857,667450,354420
1460.01867804025,0.27554430821066,664753,352465
1463.25334690003,0.275557078101046,662613,351320
1466.48374540132,0.274972241948748,659446,350112
1469.70987354412,0.27458853701293,656293,348746
1472.93173132843,0.273875774823517,653090,347614
1476.14931875425,0.273586225563366,650075,346240
1479.36263582158,0.272855866855764,646158,344733
1482.57168253042,0.27239148746364,642496,343146
1485.77645888076,0.271673103345478,638161,341395
1488.97696487262,0.27118928983332,634364,339742
1493.23766341522,0.270291945845734,627841,336944
1496.42820523726,0.269811102092922,623111,334776
1499.61447670082,0.26904213257148,617975,332605
1502.79647780588,0.268136737195827,612850,330535
1505.97420855245,0.267722544968506,607496,327960
1509.14766894053,0.266631753865956,601715,325656
1512.31685897012,0.266199381455604,595850,322803
1515.48177864122,0.26511962674509,589445,320128
1518.64242795382,0.264226593808316,583227,317403
1522.84998425743,0.263122340549136,574268,313323
1526.00066940022,0.262674288638865,567436,309915
1529.14708418453,0.262593005995363,560509,306189
1532.28922861034,0.261571284919983,552893,302740
1535.42710267766,0.261405397631457,545133,298605
1538.5607063865,0.260895846641504,537313,294667
1541.69003973684,0.2608344981534,528679,289973
1544.81510272869,0.26020035352244,520427,285864
1547.93589536205,0.259761811304614,511583,281290
1551.05241763692,0.259598379137582,502984,276666
1555.2011378902,0.2594511416506,491691,270546
1558.30769599526,0.25949469586193,483005,265740
1561.40998374183,0.258821933770943,474080,261234
1564.5080011299,0.258969354199934,465351,256337
1567.60174815948,0.258954727893959,455892,251135
1570.69122483058,0.258685824620896,446488,246107
1573.77643114318,0.258751302923745,436964,240821
1576.85736709729,0.258541061085367,427641,235797
1579.93403269291,0.258664746631101,418148,230497
1584.0296107072,0.25750965106869,405257,223986
1587.09631213301,0.257862613424736,395917,218646
1590.15874320033,0.256814059269883,386931,214200
1593.21690390916,0.256363108419127,377025,208933
1596.27079425949,0.25637650962532,368279,204080
1599.32041425134,0.255317697502182,359429,199662
1602.36576388469,0.255262100561769,350619,194793
1605.40684315956,0.25454886217622,341321,189939
1608.44365207593,0.25388478130206,331952,185008
1611.47619063381,0.254048235475194,323490,180224
1615.51293259778,0.253626124133402,311364,173637
1618.53550698585,0.252520451204137,302629,169196
1621.55381101543,0.252157258517021,293989,164503
1624.56784468652,0.252252726956415,285402,159663
1627.57760799912,0.252355691497348,277111,154988
1630.58310095323,0.252024009116422,268381,150220
1633.58432354884,0.252336248508607,259851,145341
1636.58127578597,0.251784127577701,251766,140998
1639.5739576646,0.253263898636508,243631,135978
1643.55755738958,0.253753940602608,232846,129812
1646.5402750984,0.254062106385128,224871,125277
1649.51872244873,0.255645326220285,216762,120320
1652.49289944057,0.255679669480224,208731,115853
1655.46280607392,0.256956157853911,201176,111332
1658.42844234878,0.258544099835217,193369,106621
1661.38980826515,0.260446798581754,185755,101975
1664.34690382303,0.260758108972576,177698,97482
1667.29972902242,0.264451666927365,169255,92064
1670.24828386331,0.263906802795621,160255,87278
1674.17304753796,0.264222808593452,145907,79406
1677.11163820905,0.266020506045821,133519,72364
1680.04595852164,0.267059720008383,120182,64980
1682.97600847574,0.267864146860951,106680,57573
1685.90178807136,0.2668549347341,92708,50149
1688.82329730848,0.27084689165666,79907,42829
1691.74053618711,0.270128940441218,68154,36590
1694.65350470725,0.267642519407524,57640,31123
1697.56220286889,0.271761152783235,48740,26069
1701.43382430455,0.268613485438917,39330,21189
