***Scan Config Information***,,,,,,,***Reference Scan Information***,,,,,,,,
Scan Config Name:,herbario,,,,,,Scan Config Name:,Local New Reference,,,,,,,
Scan Config Type:,Slew,Num Section:,1,,,,Scan Config Type:,Slew,Num Section:,1,,,,,
Section Config Type:,Column,,,,,,Section Config Type:,Column,,,,,,,
Start Wavelength (nm):,900,,,,,,Start Wavelength (nm):,900,,,,,,,
End Wavelength (nm):,1700,,,,,,End Wavelength (nm):,1700,,,,,,,
Pattern Width (nm):,7.03,,,,,,Pattern Width (nm):,7.03,,,,,,,
Exposure (ms):,0.635,,,,,,Exposure (ms):,0.635,,,,,,,
Digital Resolution:,228,,,,,,Digital Resolution:,228,,,,,,,
Num Repeats:,20,,,,,,Num Repeats:,20,,,,,,,
PGA Gain:,64,(FixedPGA),,,,,PGA Gain:,64,(AutoPGA),,,,,,
System Temp (C):,42.01,,,,,,System Temp (C):,41.65,,,,,,,
Humidity (%):,23.98,,,,,,Humidity (%):,24.26,,,,,,,
Lamp Indicator:,1125,,,,,,Lamp Indicator:,1128,,,,,,,
Data Date-Time:,2023/11/10T14:28:18,,,,,,Data Date-Time:,2023/11/10T14:25:29,,,,,,,
Total Measurement Time in sec:,6.8035439,,,,,,,,,,,,,,
,,,,,,,,,,,,,,,
***General Information***,,,,,,,***Calibration Coefficients***,,,,,,,,
Model Name:,NIR-S-G1,,,,,,Shift Vector Coefficients:,-5.08535400046452,0.0413457073195706,-8.39863846568903E-05,,,,,
Serial Number:,B07R011,(95UB122GC0AB07R011),,,,,Pixel to Wavelength Coefficients:,1794.37724621797,-0.920219689099738,-0.000237242138379873,,,,,
GUI Version:,3.9.4,Revision:,526,,,,Versions (Cal/Ref/Cfg):,1,3,1,,,,,
TIVA Version:,2.4.7,,,,,,***Lamp Usage ***,,,,,,,,
DLPC Version:,2.3.1,,,,,,Total Time(hh:mm:ss):,1hr 1min 28sec ,,,,,,,
UUID:,DE:67:0C:88:67:2B:47:21,,,,,,***Device/Error/Activation Status***,,,,,,,,
Main Board Version:,D,,,,,,Device Status:,0x00000001,Activation Status:,Activated,,,,,
Detector Board Version:,B,,,,,,Error status:,0x00000000,Error Code:,0x00000000000000000000000000000000,,,,,
,,,,,,,,,Error Details:,Not found,,,,,
***Scan Data***,,,,,,,,,,,,,,,
Wavelength (nm),Absorbance (AU),Reference Signal (unitless),Sample Signal (unitless)
901.81429527209,0.247976619343141,86782,49029
905.716563509274,0.249173693008552,94201,53074
909.614561387966,0.248795202103147,102021,57530
913.508288908168,0.246211306142787,110988,62960
917.397746069878,0.244677843763971,121927,69410
921.282932873098,0.244959424483689,135467,77068
925.163849317827,0.2422584111278,151659,86818
929.040495404065,0.243222745632415,170512,97394
932.912871131812,0.241006996264365,189435,108756
938.069395988934,0.241507914652702,213771,122586
941.931807546869,0.240255970439577,229984,132264
945.789948746314,0.240292432756926,244322,140498
949.643819587268,0.239726446686156,256944,147949
953.493420069731,0.239677825569993,268404,154565
957.338750193702,0.238468816605641,279958,161668
961.179809959184,0.238986952032412,290771,167712
965.016599366174,0.238071312766989,300970,173961
968.849118414673,0.238303305768194,311491,179946
973.952501032798,0.237559917974328,324254,187640
977.775055911486,0.237692824316983,334265,193374
981.593340431682,0.237219494835968,342493,198350
985.407354593388,0.237549394464919,350735,202969
989.217098396603,0.237341075393223,358182,207378
993.022571841327,0.237210443771832,364387,211034
996.823774927561,0.238087550301445,370110,213916
1000.6207076553,0.237415921684662,375415,217318
1004.41337002455,0.237156855341157,380096,220159
1008.20176203532,0.237526731557469,383658,222033
1013.24630860312,0.236810543216121,387342,224535
1017.02473644407,0.237369328448344,389530,225513
1020.79889392653,0.236644626654004,391024,226756
1024.5687810505,0.236889627558892,392097,227250
1028.33439781597,0.236746573016886,392901,227791
1032.09574422296,0.237213299869761,393099,227661
1035.85282027145,0.236878882744909,393421,228023
1039.60562596146,0.236874371116893,393096,227837
1043.35416129297,0.23698157896299,393250,227870
1048.34556562178,0.237402646216359,392652,227303
1052.08413678348,0.23660810915853,392424,227587
1055.81843758669,0.236997961010647,392414,227377
1059.54846803141,0.237256931487773,392168,227099
1063.27422811764,0.237055738788352,392247,227250
1066.99571784538,0.237256844104562,392218,227128
1070.71293721462,0.237061887432888,392924,227639
1074.42588622538,0.237348684423486,393795,227993
1078.13456487764,0.237767019750392,395383,228692
1081.83897317142,0.237597590766405,396798,229600
1086.77154144991,0.237385852266322,398997,230985
1090.46598557387,0.237524052529007,401334,232264
1094.15615933934,0.237712269590241,404018,233716
1097.84206274632,0.237264914225345,406277,235265
1101.52369579481,0.237687481892765,409274,236770
1105.20105848481,0.237405234776488,412482,238781
1108.87415081632,0.23729348315913,416253,241026
1112.54297278934,0.237241289066091,419420,242889
1116.20752440387,0.237575595460029,423277,244934
1121.08695044336,0.23817636433617,428987,247895
1124.74153788807,0.238640142159518,433312,250127
1128.3918549743,0.23867049608094,437897,252756
1132.03790170203,0.238933568614147,442647,255343
1135.67967807127,0.239462914283872,447585,257877
1139.31718408202,0.239265149757561,452565,260865
1142.95041973428,0.239764333212519,457808,263584
1146.57938502805,0.240191866981414,463073,266353
1150.20407996333,0.240986137397155,468498,268981
1153.82450454012,0.241596680944676,474599,272101
1158.6450945293,0.241956531679745,482476,276388
1162.25555493627,0.24234154020503,488612,279655
1165.86174498476,0.242636675843766,495067,283157
1169.46366467475,0.24274190898329,501745,286907
1173.06131400625,0.243251403333846,508504,290431
1176.65469297927,0.243471895779765,516039,294585
1180.24380159379,0.244363464484374,523180,298049
1183.82863984982,0.244403785022471,531167,302571
1187.40920774736,0.244577031723723,538748,306767
1192.17665549754,0.244952408788937,549704,312735
1195.74725922527,0.244953832960095,557816,317349
1199.3135925945,0.245184022855447,566432,322080
1202.87565560525,0.245328530224326,574794,326726
1206.43344825751,0.245502330801883,583141,331338
1209.98697055127,0.245237191451614,592269,336730
1213.53622248654,0.245083990883365,600920,341769
1217.08120406333,0.244599486474845,609172,346849
1220.62191528162,0.244490804250425,617906,351910
1224.15835614142,0.244109099282696,626333,357023
1228.86696784128,0.24353865121992,636927,363539
1232.39344453127,0.243378440057756,644885,368217
1235.91565086277,0.243102106582367,652596,372857
1239.43358683578,0.242741114090482,659404,377060
1242.94725245029,0.242462569436785,666117,381143
1246.45664770632,0.242214154320813,672894,385241
1249.96177260386,0.242247960252447,678510,388426
1253.4626271429,0.24210244556437,684054,391731
1256.95921132345,0.242080378073778,689565,394907
1261.61468078432,0.241995555304064,698931,400349
1265.10130079506,0.241984139417415,706168,404505
1268.58365044731,0.241914069632565,713029,408501
1272.06172974107,0.242174111486787,719265,411827
1275.53553867634,0.241952644141121,725015,415331
1279.00507725312,0.242005530089397,730058,418169
1282.4703454714,0.242158546161919,735504,421140
1285.9313433312,0.242067177347213,740165,423898
1289.38807083251,0.241805672751043,744014,426359
1292.84052797532,0.241888311951559,747395,428215
1297.43716138587,0.242051604327245,752434,430940
1300.87965435887,0.2420840961156,755808,432840
1304.31787697338,0.242301456103788,758171,433976
1307.7518292294,0.242367208710782,760580,435289
1311.18151112693,0.242178064120493,762556,436610
1314.60692266597,0.242375874042561,764151,437324
1318.02806384652,0.242567370143436,765425,437860
1321.44493466858,0.243060432976947,766389,437914
1324.85753513215,0.243056022948696,767160,438359
1329.4010263037,0.243684765307561,767467,437900
1332.80366259745,0.243835496280307,767509,437772
1336.20202853272,0.244356915660784,767183,437061
1339.59612410949,0.244928214578118,766727,436227
1342.98594932777,0.245796243582979,765813,434837
1346.37150418756,0.246866176916076,764028,432756
1349.75278868886,0.247411668461481,761969,431048
1353.12980283167,0.248031566679108,759131,428830
1356.50254661599,0.248837745251822,756755,426695
1359.87102004182,0.249345878443213,753779,424520
1364.35567516305,0.250269212116835,751006,422060
1367.71418441907,0.250789576703366,749129,420501
1371.06842331659,0.25141506834216,745984,418133
1374.41839185563,0.251786577420933,741437,415229
1377.76409003617,0.25276961862244,735257,410837
1381.10551785823,0.254102134958303,729291,406255
1384.44267532179,0.25506825556809,723195,401964
1387.77556242686,0.25651190056729,717608,397535
1391.10417917344,0.258120548489641,712471,393230
1395.53569205567,0.260501048331497,706828,387983
1398.85434463244,0.263256880299233,702958,383418
1402.16872685072,0.266224953742922,699457,378910
1405.47883871051,0.269431534648902,696538,374553
1408.7846802118,0.273519899420126,694089,369739
1412.08625135461,0.276274059331936,691271,365910
1415.38355213892,0.2801439439856,688898,361419
1418.67658256475,0.283331144324017,686983,357779
1421.96534263208,0.286540262966425,685685,354474
1425.24983234092,0.2889109938317,684076,351717
1429.62250917284,0.29216337180499,682246,348159
1432.89703471187,0.293458718375842,681096,346537
1436.16728989241,0.295149984643203,679906,344587
1439.43327471445,0.296135234709827,679174,343436
1442.69498917801,0.297296957640154,678352,342104
1445.95243328308,0.297303942641293,677308,341572
1449.20560702965,0.29784133768273,676195,340589
1452.45451041774,0.298109194856307,674268,339409
1455.69914344733,0.29860786442521,671942,337850
1460.01867804025,0.298759152746074,669146,336327
1463.25334690003,0.298749970217906,666824,335167
1466.48374540132,0.298901556010109,663757,333509
1469.70987354412,0.298510872995046,660782,332313
1472.93173132843,0.298090061195037,657351,330908
1476.14931875425,0.297652360930801,653849,329477
1479.36263582158,0.297494869917893,650545,327931
1482.57168253042,0.297402495349329,646549,325986
1485.77645888076,0.296572218391339,642321,324474
1488.97696487262,0.296408070731856,638552,322692
1493.23766341522,0.295779203962925,631876,319781
1496.42820523726,0.295106429646852,627323,317969
1499.61447670082,0.2945440994164,622275,315819
1502.79647780588,0.29340718761293,616645,313782
1505.97420855245,0.2928241879272,611192,311425
1509.14766894053,0.291722183183791,605262,309187
1512.31685897012,0.29093191646486,599640,306873
1515.48177864122,0.290510568399399,592880,303708
1518.64242795382,0.289525660168119,586991,301374
1522.84998425743,0.288442135203885,577889,297442
1526.00066940022,0.287867891334224,571126,294350
1529.14708418453,0.287164034622766,563948,291122
1532.28922861034,0.286348166656728,556333,287731
1535.42710267766,0.285956277022185,548334,283850
1538.5607063865,0.28556398653203,540472,280033
1541.69003973684,0.285492575002161,532178,275781
1544.81510272869,0.284133306375448,523255,272007
1547.93589536205,0.283937536846536,514753,267708
1551.05241763692,0.28389101934289,506248,263313
1555.2011378902,0.282987065497079,494549,257764
1558.30769599526,0.282550835739186,485874,253497
1561.40998374183,0.282651337362515,477206,248917
1564.5080011299,0.282110206149032,468095,244469
1567.60174815948,0.281952090833802,458697,239648
1570.69122483058,0.281837228549115,449318,234810
1573.77643114318,0.281096995648284,439798,230227
1576.85736709729,0.280454498656062,430055,225460
1579.93403269291,0.280036438066553,420277,220546
1584.0296107072,0.27962664925806,407818,214210
1587.09631213301,0.278320724158252,398202,209789
1590.15874320033,0.278575984795381,389185,204918
1593.21690390916,0.277933860679663,379346,200033
1596.27079425949,0.27690829289314,370454,195806
1599.32041425134,0.276088373076524,361335,191347
1602.36576388469,0.275494103341466,352253,186793
1605.40684315956,0.274789013462706,343053,182210
1608.44365207593,0.27399946859521,333926,177685
1611.47619063381,0.273344056226529,325104,173252
1615.51293259778,0.272567297175224,312949,167073
1618.53550698585,0.272507449658896,304448,162557
1621.55381101543,0.272293802087275,295721,157975
1624.56784468652,0.271434135959075,287000,153620
1627.57760799912,0.271869439525953,278689,149022
1630.58310095323,0.27102707693694,269858,144580
1633.58432354884,0.271112909367359,261699,140181
1636.58127578597,0.271064942632401,253188,135637
1639.5739576646,0.271421543649927,244849,131062
1643.55755738958,0.271172977912022,233930,125289
1646.5402750984,0.271001808753116,225943,121059
1649.51872244873,0.271647929656717,218156,116713
1652.49289944057,0.273004369399495,210324,112172
1655.46280607392,0.273560335146635,202299,107754
1658.42844234878,0.275267089744136,194695,103297
1661.38980826515,0.274479823013705,187020,99405
1664.34690382303,0.276479744979045,178894,94649
1667.29972902242,0.278214545414648,170452,89823
1670.24828386331,0.278109440505884,161217,84977
1674.17304753796,0.277515598662603,146882,77527
1677.11163820905,0.276293334770595,134359,71117
1680.04595852164,0.278717060492019,121225,63808
1682.97600847574,0.279855304561294,107596,56486
1685.90178807136,0.28238041955071,93852,48985
1688.82329730848,0.279144892326015,80393,42274
1691.74053618711,0.282425078404893,68494,35746
1694.65350470725,0.284838143515295,58257,30235
1697.56220286889,0.282739209473331,49238,25678
1701.43382430455,0.290083360767601,39646,20329
