***Scan Config Information***,,,,,,,***Reference Scan Information***,,,,,,,,
Scan Config Name:,herbario,,,,,,Scan Config Name:,Local New Reference,,,,,,,
Scan Config Type:,Slew,Num Section:,1,,,,Scan Config Type:,Slew,Num Section:,1,,,,,
Section Config Type:,Column,,,,,,Section Config Type:,Column,,,,,,,
Start Wavelength (nm):,900,,,,,,Start Wavelength (nm):,900,,,,,,,
End Wavelength (nm):,1700,,,,,,End Wavelength (nm):,1700,,,,,,,
Pattern Width (nm):,7.03,,,,,,Pattern Width (nm):,7.03,,,,,,,
Exposure (ms):,0.635,,,,,,Exposure (ms):,0.635,,,,,,,
Digital Resolution:,228,,,,,,Digital Resolution:,228,,,,,,,
Num Repeats:,20,,,,,,Num Repeats:,20,,,,,,,
PGA Gain:,64,(FixedPGA),,,,,PGA Gain:,64,(AutoPGA),,,,,,
System Temp (C):,41.7,,,,,,System Temp (C):,41.48,,,,,,,
Humidity (%):,19.59,,,,,,Humidity (%):,19.53,,,,,,,
Lamp Indicator:,1125,,,,,,Lamp Indicator:,1127,,,,,,,
Data Date-Time:,2023/11/10T18:09:25,,,,,,Data Date-Time:,2023/11/10T18:07:38,,,,,,,
Total Measurement Time in sec:,6.7237748,,,,,,,,,,,,,,
,,,,,,,,,,,,,,,
***General Information***,,,,,,,***Calibration Coefficients***,,,,,,,,
Model Name:,NIR-S-G1,,,,,,Shift Vector Coefficients:,-5.08535400046452,0.0413457073195706,-8.39863846568903E-05,,,,,
Serial Number:,B07R011,(95UB122GC0AB07R011),,,,,Pixel to Wavelength Coefficients:,1794.37724621797,-0.920219689099738,-0.000237242138379873,,,,,
GUI Version:,3.9.4,Revision:,526,,,,Versions (Cal/Ref/Cfg):,1,3,1,,,,,
TIVA Version:,2.4.7,,,,,,***Lamp Usage ***,,,,,,,,
DLPC Version:,2.3.1,,,,,,Total Time(hh:mm:ss):,1hr 31min 15sec ,,,,,,,
UUID:,DE:67:0C:88:67:2B:47:21,,,,,,***Device/Error/Activation Status***,,,,,,,,
Main Board Version:,D,,,,,,Device Status:,0x00000001,Activation Status:,Activated,,,,,
Detector Board Version:,B,,,,,,Error status:,0x00000000,Error Code:,0x00000000000000000000000000000000,,,,,
,,,,,,,,,Error Details:,Not found,,,,,
***Scan Data***,,,,,,,,,,,,,,,
Wavelength (nm),Absorbance (AU),Reference Signal (unitless),Sample Signal (unitless)
901.81429527209,0.186084202891363,85682,55822
905.716563509274,0.183257211002192,92821,60868
909.614561387966,0.182626250983726,100504,66002
913.508288908168,0.181537927247167,109082,71815
917.397746069878,0.179246193116582,119367,79002
921.282932873098,0.182064961698622,133045,87485
925.163849317827,0.180806396137712,148820,98142
929.040495404065,0.179900632782568,167410,110632
932.912871131812,0.179189024667944,186212,123259
938.069395988934,0.180045147774738,210254,138899
941.931807546869,0.178846454149454,226044,149743
945.789948746314,0.179281612829337,240192,158956
949.643819587268,0.177768245252671,252338,167577
953.493420069731,0.177903849192184,263869,175180
957.338750193702,0.177481070849715,275270,182927
961.179809959184,0.177466138340574,285848,189963
965.016599366174,0.177986993696587,296172,196588
968.849118414673,0.176965241423332,305910,203530
973.952501032798,0.176891795826802,319015,212285
977.775055911486,0.177021895405192,328650,218631
981.593340431682,0.176448447849084,336934,224438
985.407354593388,0.176079930668745,345027,230024
989.217098396603,0.176175103259986,352259,234794
993.022571841327,0.17562438215594,358404,239193
996.823774927561,0.175512226296603,363899,242923
1000.6207076553,0.175075402132492,369582,246965
1004.41337002455,0.174286070238992,373927,250323
1008.20176203532,0.174077470227811,377392,252764
1013.24630860312,0.173382461897319,380870,255502
1017.02473644407,0.172450610973281,383042,257511
1020.79889392653,0.172385723200649,384884,258788
1024.5687810505,0.171403431442275,386083,260182
1028.33439781597,0.171243064458604,386427,260510
1032.09574422296,0.170974102168073,386800,260923
1035.85282027145,0.170452735954922,387134,261462
1039.60562596146,0.170007651909703,387372,261891
1043.35416129297,0.169561346005522,387246,262075
1048.34556562178,0.168696118753757,386695,262224
1052.08413678348,0.168172742164395,386434,262363
1055.81843758669,0.167782383920367,385922,262251
1059.54846803141,0.167471513314896,386312,262704
1063.27422811764,0.166883052823259,386228,263003
1066.99571784538,0.166657715597026,386399,263256
1070.71293721462,0.166084745941646,386750,263843
1074.42588622538,0.165784214182861,387959,264851
1078.13456487764,0.165516794124976,389310,265937
1081.83897317142,0.164807770451511,390933,267482
1086.77154144991,0.163788655623271,392965,269504
1090.46598557387,0.163975544292078,395366,271034
1094.15615933934,0.163369262022648,397958,273192
1097.84206274632,0.163125803179931,400242,274914
1101.52369579481,0.16280301141362,403119,277096
1105.20105848481,0.162872596513911,406568,279422
1108.87415081632,0.162012394093271,409937,282296
1112.54297278934,0.16199308198388,413276,284608
1116.20752440387,0.162097855747619,416940,287062
1121.08695044336,0.161880922703892,422588,291096
1124.74153788807,0.161715182377964,426609,293978
1128.3918549743,0.16227613390224,431550,296999
1132.03790170203,0.162382724806971,436035,300012
1135.67967807127,0.162404709118351,440682,303194
1139.31718408202,0.162828453038307,445778,306401
1142.95041973428,0.162833952016022,450934,309941
1146.57938502805,0.163116488663499,456502,313564
1150.20407996333,0.163151186193017,461365,316879
1153.82450454012,0.163576943340655,467274,320623
1158.6450945293,0.164416448085411,475358,325540
1162.25555493627,0.164447822437006,481054,329417
1165.86174498476,0.164810865503545,487415,333494
1169.46366467475,0.165422663693816,494299,337728
1173.06131400625,0.165476895981391,500756,342097
1176.65469297927,0.165905444406477,507882,346623
1180.24380159379,0.166310167162432,514898,351084
1183.82863984982,0.166729340908147,522954,356233
1187.40920774736,0.167162828002652,530565,361057
1192.17665549754,0.16791211170039,541142,367620
1195.74725922527,0.16775456101052,549161,373203
1199.3135925945,0.167919098696011,557692,378857
1202.87565560525,0.167923051390906,566023,384513
1206.43344825751,0.167699015036124,573910,390072
1209.98697055127,0.167850730321238,583143,396209
1213.53622248654,0.167644833144037,591808,402287
1217.08120406333,0.167146766588535,600293,408523
1220.62191528162,0.166493024762989,608365,414640
1224.15835614142,0.165970869220947,616541,420718
1228.86696784128,0.165451080215353,627235,428528
1232.39344453127,0.165156795049244,635051,434162
1235.91565086277,0.164987684162469,642537,439451
1239.43358683578,0.164631260705154,649392,444504
1242.94725245029,0.164365323310617,656283,449496
1246.45664770632,0.164050095634952,662772,454270
1249.96177260386,0.163780489954608,668158,458246
1253.4626271429,0.163712117144879,673632,462073
1256.95921132345,0.163442283254237,679375,466302
1261.61468078432,0.163574943477712,688716,472569
1265.10130079506,0.163185143611423,695661,477763
1268.58365044731,0.16324910995056,702110,482121
1272.06172974107,0.162936017023023,708384,486780
1275.53553867634,0.162903979166549,714324,490898
1279.00507725312,0.162723070755092,719241,494483
1282.4703454714,0.162662395640545,724459,498140
1285.9313433312,0.16231625826039,728981,501649
1289.38807083251,0.162381948886936,733091,504401
1292.84052797532,0.162260125892794,736374,506802
1297.43716138587,0.16219384204526,741278,510255
1300.87965435887,0.162115435223137,744498,512564
1304.31787697338,0.161806045605544,746833,514538
1307.7518292294,0.162072593494371,749075,515766
1311.18151112693,0.162204735296903,751379,517195
1314.60692266597,0.162128236493776,753042,518431
1318.02806384652,0.162346193201246,754167,518945
1321.44493466858,0.162693902356538,755427,519396
1324.85753513215,0.162777066956081,756043,519720
1329.4010263037,0.163451628718965,756701,519365
1332.80366259745,0.163895816165841,756539,518723
1336.20202853272,0.164462613603372,756090,517739
1339.59612410949,0.165236566082989,755863,516662
1342.98594932777,0.166108162718058,754822,514916
1346.37150418756,0.166772559302939,753056,512926
1349.75278868886,0.167481121713798,751096,510757
1353.12980283167,0.168697707099611,748776,507755
1356.50254661599,0.169536514238863,746515,505245
1359.87102004182,0.17061963949678,743617,502030
1364.35567516305,0.171928969173745,740958,498729
1367.71418441907,0.172725759632063,738998,496498
1371.06842331659,0.173533220079831,735931,493519
1374.41839185563,0.174379303916744,731321,489473
1377.76409003617,0.17552049665782,725424,484252
1381.10551785823,0.176971987872269,719434,478651
1384.44267532179,0.178902390485264,713736,472754
1387.77556242686,0.180740854356804,707908,466913
1391.10417917344,0.183474614089098,703027,460784
1395.53569205567,0.187370318675455,697166,452862
1398.85434463244,0.191490963575412,693614,446300
1402.16872685072,0.195427504659464,689891,439899
1405.47883871051,0.200519696964404,687255,433110
1408.7846802118,0.205920457691855,684430,425999
1412.08625135461,0.210855037909177,681591,419439
1415.38355213892,0.215828603960208,679160,413184
1418.67658256475,0.220997237786649,677502,407299
1421.96534263208,0.225265625967882,676043,402447
1425.24983234092,0.228777406979175,674365,398215
1429.62250917284,0.233467030828671,672528,392865
1432.89703471187,0.235802526656145,671683,390267
1436.16728989241,0.23803836543657,670152,387378
1439.43327471445,0.239376910272883,669524,385824
1442.69498917801,0.240453195802063,668555,384312
1445.95243328308,0.241295423128667,667810,383140
1449.20560702965,0.24155077438489,666750,382307
1452.45451041774,0.241886053134623,664605,380783
1455.69914344733,0.241839290813354,662523,379631
1460.01867804025,0.241856411430371,659748,378026
1463.25334690003,0.240917842955296,657197,377379
1466.48374540132,0.240752115284723,654248,375829
1469.70987354412,0.239915092948207,651190,374794
1472.93173132843,0.239584727059732,648325,373429
1476.14931875425,0.238028088545408,644874,372775
1479.36263582158,0.237240836341498,641387,371432
1482.57168253042,0.236671994510226,637514,369673
1485.77645888076,0.235434308037872,633435,368356
1488.97696487262,0.234877478123572,629532,366556
1493.23766341522,0.233484382162643,623385,364143
1496.42820523726,0.232242160246597,618385,362257
1499.61447670082,0.231387380522743,613375,360030
1502.79647780588,0.230522191134549,608196,357702
1505.97420855245,0.229141283215132,602689,355592
1509.14766894053,0.228119650804911,597164,353162
1512.31685897012,0.227061857113706,591162,350465
1515.48177864122,0.22584622901901,584751,347636
1518.64242795382,0.22476037048619,578534,344801
1522.84998425743,0.223714081904638,569623,340309
1526.00066940022,0.222779419508905,563224,337211
1529.14708418453,0.221808913574395,555979,333618
1532.28922861034,0.221206514983359,548688,329700
1535.42710267766,0.220685603374801,540675,325275
1538.5607063865,0.220316096146033,532911,320877
1541.69003973684,0.219392799736595,524300,316364
1544.81510272869,0.219574049444708,516748,311677
1547.93589536205,0.218242914849945,507798,307219
1551.05241763692,0.218011097261035,499267,302219
1555.2011378902,0.217538377408004,487915,295669
1558.30769599526,0.217332403811668,479519,290719
1561.40998374183,0.216805679952885,470671,285701
1564.5080011299,0.216191849304642,461557,280565
1567.60174815948,0.216658129359465,452473,274748
1570.69122483058,0.21638579262494,442869,269085
1573.77643114318,0.21592505387878,433546,263700
1576.85736709729,0.215623044863823,424399,258316
1579.93403269291,0.215479804522896,414605,252438
1584.0296107072,0.214689746024087,402146,245298
1587.09631213301,0.214307506934416,392803,239810
1590.15874320033,0.21352702180878,383916,234806
1593.21690390916,0.213751686659065,374319,228818
1596.27079425949,0.212909257225688,365497,223859
1599.32041425134,0.212082863653135,356338,218665
1602.36576388469,0.211602423677846,347302,213356
1605.40684315956,0.210861710151077,338286,208172
1608.44365207593,0.210793703615893,329365,202714
1611.47619063381,0.210172113882108,320329,197435
1615.51293259778,0.210008481611385,309016,190534
1618.53550698585,0.208988565407481,300133,185492
1621.55381101543,0.209394331101737,291736,180134
1624.56784468652,0.209305000303002,283031,174795
1627.57760799912,0.208905369628232,275025,170007
1630.58310095323,0.209570533364364,266294,164358
1633.58432354884,0.209612563018176,257983,159213
1636.58127578597,0.208901273862475,249613,154300
1639.5739576646,0.210391354880352,241689,148890
1643.55755738958,0.210447983199456,230762,142140
1646.5402750984,0.2118646025171,222885,136841
1649.51872244873,0.213201317607019,215189,131710
1652.49289944057,0.215659682253779,207229,126122
1655.46280607392,0.216866949788554,199762,121240
1658.42844234878,0.21721629728043,191818,116325
1661.38980826515,0.218304690585145,183999,111304
1664.34690382303,0.220398957017438,176244,106100
1667.29972902242,0.22145826095118,167864,100809
1670.24828386331,0.221776713780018,158747,95264
1674.17304753796,0.222374787813048,144842,86800
1677.11163820905,0.222762000706541,132500,79333
1680.04595852164,0.224834773500952,119430,71167
1682.97600847574,0.226304416087269,105874,62876
1685.90178807136,0.224223797339459,92290,55072
1688.82329730848,0.224289151838505,79415,47382
1691.74053618711,0.23076148975206,67690,39789
1694.65350470725,0.22664452025463,56851,33736
1697.56220286889,0.231546605515824,48726,28590
1701.43382430455,0.233395436690049,39029,22803
