***Scan Config Information***,,,,,,,***Reference Scan Information***,,,,,,,,
Scan Config Name:,herbario,,,,,,Scan Config Name:,Local New Reference,,,,,,,
Scan Config Type:,Slew,Num Section:,1,,,,Scan Config Type:,Slew,Num Section:,1,,,,,
Section Config Type:,Column,,,,,,Section Config Type:,Column,,,,,,,
Start Wavelength (nm):,900,,,,,,Start Wavelength (nm):,900,,,,,,,
End Wavelength (nm):,1700,,,,,,End Wavelength (nm):,1700,,,,,,,
Pattern Width (nm):,7.03,,,,,,Pattern Width (nm):,7.03,,,,,,,
Exposure (ms):,0.635,,,,,,Exposure (ms):,0.635,,,,,,,
Digital Resolution:,228,,,,,,Digital Resolution:,228,,,,,,,
Num Repeats:,20,,,,,,Num Repeats:,20,,,,,,,
PGA Gain:,64,(FixedPGA),,,,,PGA Gain:,64,(AutoPGA),,,,,,
System Temp (C):,41.59,,,,,,System Temp (C):,41.42,,,,,,,
Humidity (%):,20.48,,,,,,Humidity (%):,20.47,,,,,,,
Lamp Indicator:,1119,,,,,,Lamp Indicator:,1128,,,,,,,
Data Date-Time:,2023/11/10T16:18:27,,,,,,Data Date-Time:,2023/11/10T16:15:07,,,,,,,
Total Measurement Time in sec:,6.725514,,,,,,,,,,,,,,
,,,,,,,,,,,,,,,
***General Information***,,,,,,,***Calibration Coefficients***,,,,,,,,
Model Name:,NIR-S-G1,,,,,,Shift Vector Coefficients:,-5.08535400046452,0.0413457073195706,-8.39863846568903E-05,,,,,
Serial Number:,B07R011,(95UB122GC0AB07R011),,,,,Pixel to Wavelength Coefficients:,1794.37724621797,-0.920219689099738,-0.000237242138379873,,,,,
GUI Version:,3.9.4,Revision:,526,,,,Versions (Cal/Ref/Cfg):,1,3,1,,,,,
TIVA Version:,2.4.7,,,,,,***Lamp Usage ***,,,,,,,,
DLPC Version:,2.3.1,,,,,,Total Time(hh:mm:ss):,1hr 18min 35sec ,,,,,,,
UUID:,DE:67:0C:88:67:2B:47:21,,,,,,***Device/Error/Activation Status***,,,,,,,,
Main Board Version:,D,,,,,,Device Status:,0x00000001,Activation Status:,Activated,,,,,
Detector Board Version:,B,,,,,,Error status:,0x00000000,Error Code:,0x00000000000000000000000000000000,,,,,
,,,,,,,,,Error Details:,Not found,,,,,
***Scan Data***,,,,,,,,,,,,,,,
Wavelength (nm),Absorbance (AU),Reference Signal (unitless),Sample Signal (unitless)
901.81429527209,0.54959497776852,86196,24316
905.716563509274,0.542554449545876,93376,26772
909.614561387966,0.545011189377251,101184,28847
913.508288908168,0.536712056869278,109940,31948
917.397746069878,0.53732798729444,121127,35149
921.282932873098,0.532151615186476,134389,39465
925.163849317827,0.527605083432129,150317,44607
929.040495404065,0.525958061305138,168806,50284
932.912871131812,0.520055153670306,188060,56786
938.069395988934,0.517315848137726,212053,64436
941.931807546869,0.511978511689094,228239,70212
945.789948746314,0.508255342697884,242138,75129
949.643819587268,0.504617495104305,254964,79774
953.493420069731,0.499123509244137,266396,84412
957.338750193702,0.496657904092819,277644,88477
961.179809959184,0.493457908043118,288614,92653
965.016599366174,0.4898885959044,298585,96645
968.849118414673,0.485979899100944,308650,100806
973.952501032798,0.482174420635406,321752,106010
977.775055911486,0.478771435923958,331446,110063
981.593340431682,0.474758313733409,339828,113894
985.407354593388,0.47047778638768,347654,117671
989.217098396603,0.468093160390965,355335,120933
993.022571841327,0.463985994668953,361415,124171
996.823774927561,0.460850109398231,367007,127006
1000.6207076553,0.45762023723705,372141,129744
1004.41337002455,0.453766371898776,377112,132649
1008.20176203532,0.450207052580079,380415,134912
1013.24630860312,0.445843707310528,383711,137455
1017.02473644407,0.443191316290278,385961,139108
1020.79889392653,0.439511589291262,387896,140995
1024.5687810505,0.437136598056183,389042,142187
1028.33439781597,0.433841545634885,389713,143517
1032.09574422296,0.431159082610531,389896,144474
1035.85282027145,0.427618535160869,390336,145821
1039.60562596146,0.424048248193853,390204,146975
1043.35416129297,0.421616882406006,390201,147799
1048.34556562178,0.417161531507231,389430,149028
1052.08413678348,0.414341962538336,389449,150006
1055.81843758669,0.411850575669909,388894,150654
1059.54846803141,0.409064437073981,389072,151693
1063.27422811764,0.406110370457124,388875,152651
1066.99571784538,0.40411232357501,388860,153349
1070.71293721462,0.40141404303232,389841,154694
1074.42588622538,0.399221689674159,390759,155843
1078.13456487764,0.397286667708099,391895,156994
1081.83897317142,0.394081580088093,393548,158824
1086.77154144991,0.391776980831237,395919,160631
1090.46598557387,0.389044857650519,397960,162478
1094.15615933934,0.386597751083559,400332,164370
1097.84206274632,0.384766325479834,402831,166095
1101.52369579481,0.382258627690164,405725,168257
1105.20105848481,0.380215911410086,409214,170504
1108.87415081632,0.378111219690666,412569,172737
1112.54297278934,0.375987977251724,415888,174980
1116.20752440387,0.37500753596313,419859,177050
1121.08695044336,0.372152439859503,425344,180546
1124.74153788807,0.370542774258049,429413,182950
1128.3918549743,0.36866274289799,434242,185810
1132.03790170203,0.367419312509271,438838,188315
1135.67967807127,0.366448375765891,443815,190877
1139.31718408202,0.364681300244844,448777,193798
1142.95041973428,0.362965342670152,454100,196873
1146.57938502805,0.361333870905675,458928,199715
1150.20407996333,0.360135125880316,464524,202709
1153.82450454012,0.358327625510814,470267,206071
1158.6450945293,0.356871628282264,478257,210276
1162.25555493627,0.355655765587779,484053,213421
1165.86174498476,0.355050548034883,490647,216630
1169.46366467475,0.353322146542282,497300,220443
1173.06131400625,0.35163405498875,504083,224320
1176.65469297927,0.350421892163939,511543,228276
1180.24380159379,0.349130596973945,518253,231959
1183.82863984982,0.348525139749184,526547,236000
1187.40920774736,0.34657781171662,534031,240430
1192.17665549754,0.345439608751995,544935,245983
1195.74725922527,0.343418632390264,552685,250645
1199.3135925945,0.342646867714318,561545,255116
1202.87565560525,0.341365898819977,569800,259631
1206.43344825751,0.340048496056798,577883,264114
1209.98697055127,0.338531228659771,587090,269261
1213.53622248654,0.337121653817908,595463,273989
1217.08120406333,0.334920439212393,603755,279216
1220.62191528162,0.33383047927819,612213,283839
1224.15835614142,0.331606967190906,620507,289161
1228.86696784128,0.330101761128178,631285,295205
1232.39344453127,0.328327773047341,639207,300133
1235.91565086277,0.327276155354191,646561,304322
1239.43358683578,0.325868479393621,653253,308470
1242.94725245029,0.324352762016194,660328,312901
1246.45664770632,0.323610003208223,666885,316549
1249.96177260386,0.322520764084745,672702,320112
1253.4626271429,0.320690805584407,677884,323940
1256.95921132345,0.319865706633857,683634,327309
1261.61468078432,0.31847470812434,692753,332739
1265.10130079506,0.317049575635832,699942,337297
1268.58365044731,0.316305137325568,706433,341009
1272.06172974107,0.315279574094041,712798,344895
1275.53553867634,0.314366340664884,718453,348363
1279.00507725312,0.313440071067391,723798,351704
1282.4703454714,0.312140733517569,728653,355124
1285.9313433312,0.311621899560975,733468,357898
1289.38807083251,0.310581332689188,737564,360760
1292.84052797532,0.309495627658817,740776,363238
1297.43716138587,0.308399719173105,745502,366479
1300.87965435887,0.307814418635848,748823,368608
1304.31787697338,0.306893766805353,751393,370658
1307.7518292294,0.306340563907344,754099,372467
1311.18151112693,0.305642754020653,755793,373904
1314.60692266597,0.304866534641037,757585,375461
1318.02806384652,0.304556609074569,758954,376408
1321.44493466858,0.303982245616256,759880,377366
1324.85753513215,0.3035879209626,760490,378012
1329.4010263037,0.303008874319723,761080,378810
1332.80366259745,0.302734189939563,760910,378965
1336.20202853272,0.302652688004469,760709,378936
1339.59612410949,0.302454109310178,760285,378898
1342.98594932777,0.302333474531406,759125,378425
1346.37150418756,0.302069863506842,757259,377724
1349.75278868886,0.302181764213387,755513,376756
1353.12980283167,0.302394462360346,752661,375150
1356.50254661599,0.302214936577828,750539,374247
1359.87102004182,0.302542926423651,747644,372522
1364.35567516305,0.302762281093007,744827,370931
1367.71418441907,0.302615988473533,742890,370091
1371.06842331659,0.303028973313545,739944,368273
1374.41839185563,0.303490144471283,735215,365531
1377.76409003617,0.303921424959632,729243,362202
1381.10551785823,0.304749386898521,723060,358447
1384.44267532179,0.30587707037604,717378,354708
1387.77556242686,0.307317452652785,712024,350895
1391.10417917344,0.309169957212884,706900,346887
1395.53569205567,0.312294117976029,701086,341568
1398.85434463244,0.3151603098036,697412,337543
1402.16872685072,0.318337214997553,693872,333382
1405.47883871051,0.322046793122367,690951,329155
1408.7846802118,0.325906986341581,688375,325026
1412.08625135461,0.32941860359702,685483,321054
1415.38355213892,0.333207683092151,682853,317044
1418.67658256475,0.336420298492544,681112,313905
1421.96534263208,0.339371153525393,679606,311090
1425.24983234092,0.342144874499214,678255,308495
1429.62250917284,0.34443718891754,676299,305986
1432.89703471187,0.34644457769887,675764,304334
1436.16728989241,0.347175281989024,673986,303023
1439.43327471445,0.347277337386832,672903,302465
1442.69498917801,0.347657404064996,672312,301935
1445.95243328308,0.347446035628012,671631,301776
1449.20560702965,0.347331926905567,670213,301218
1452.45451041774,0.347152455518668,668635,300633
1455.69914344733,0.346948068076262,666333,299739
1460.01867804025,0.345831009400496,663251,299121
1463.25334690003,0.345217463528991,660840,298455
1466.48374540132,0.344967585148596,657707,297211
1469.70987354412,0.34419564226468,654922,296479
1472.93173132843,0.343300783842683,651925,295731
1476.14931875425,0.342710466001883,648521,294587
1479.36263582158,0.341415872981247,644736,293742
1482.57168253042,0.340454645635197,640884,292634
1485.77645888076,0.339077969600119,636821,291702
1488.97696487262,0.338840697654274,633041,290129
1493.23766341522,0.336981870537786,626570,288395
1496.42820523726,0.335560585932187,621686,287085
1499.61447670082,0.335161473149999,617173,285263
1502.79647780588,0.33360335587409,611645,283724
1505.97420855245,0.331865112882266,605805,282142
1509.14766894053,0.330976477882983,600354,280176
1512.31685897012,0.329589258752229,594332,278253
1515.48177864122,0.328563834303572,587927,275905
1518.64242795382,0.326952956808832,581672,273984
1522.84998425743,0.32571705311698,572870,270607
1526.00066940022,0.324631009356196,566255,268152
1529.14708418453,0.323920073364983,559392,265336
1532.28922861034,0.322953363931612,551684,262263
1535.42710267766,0.322014313168783,543742,259047
1538.5607063865,0.321038774221624,535793,255834
1541.69003973684,0.32004417203906,527229,252322
1544.81510272869,0.31946150494007,519179,248803
1547.93589536205,0.318959435010146,510688,245017
1551.05241763692,0.318027351410996,502060,241395
1555.2011378902,0.317016441455687,490663,236465
1558.30769599526,0.31656089532546,481791,232433
1561.40998374183,0.316012223306051,473229,228591
1564.5080011299,0.315124783279808,464278,224726
1567.60174815948,0.314632503453641,454703,220341
1570.69122483058,0.314201969397178,445534,216112
1573.77643114318,0.313076662347181,436008,212040
1576.85736709729,0.312456362188702,426540,207732
1579.93403269291,0.312075511560589,416963,203246
1584.0296107072,0.31104874203812,404298,197539
1587.09631213301,0.309129477021162,394817,193761
1590.15874320033,0.309268991482028,386065,189405
1593.21690390916,0.307984252697416,376387,185204
1596.27079425949,0.307331471615468,367652,181178
1599.32041425134,0.305790275876739,358496,177294
1602.36576388469,0.304901755371427,349504,173201
1605.40684315956,0.303436987054568,340331,169225
1608.44365207593,0.302781394731134,331211,164939
1611.47619063381,0.301731995314443,322579,161029
1615.51293259778,0.300282398456219,310525,155530
1618.53550698585,0.299558503040188,302005,151515
1621.55381101543,0.299391316683634,293361,147235
1624.56784468652,0.297887501237108,284766,143417
1627.57760799912,0.296951877526533,276222,139414
1630.58310095323,0.296482638369359,267631,135224
1633.58432354884,0.295771224076396,259309,131234
1636.58127578597,0.295288910499422,251069,127205
1639.5739576646,0.294668621280181,242894,123239
1643.55755738958,0.294095391605146,232112,117924
1646.5402750984,0.294373834556644,224288,113876
1649.51872244873,0.294110242549313,216239,109856
1652.49289944057,0.294511727431899,208371,105761
1655.46280607392,0.295562017058819,200788,101666
1658.42844234878,0.294702501731396,193033,97933
1661.38980826515,0.296117312863792,185213,93660
1664.34690382303,0.295146175835375,177197,89807
1667.29972902242,0.295530725933216,168641,85395
1670.24828386331,0.296812419842631,159551,80554
1674.17304753796,0.297412630930431,145025,73119
1677.11163820905,0.297935507014134,132713,66831
1680.04595852164,0.296018439326382,119331,60358
1682.97600847574,0.295836045301285,105641,53456
1685.90178807136,0.297912101032408,91880,46271
1688.82329730848,0.299025712323668,78907,39636
1691.74053618711,0.300112139476436,67118,33630
1694.65350470725,0.303983895444509,56797,28206
1697.56220286889,0.301183193905801,48201,24092
1701.43382430455,0.305363947458194,38672,19144
