***Scan Config Information***,,,,,,,***Reference Scan Information***,,,,,,,,
Scan Config Name:,herbario,,,,,,Scan Config Name:,Local New Reference,,,,,,,
Scan Config Type:,Slew,Num Section:,1,,,,Scan Config Type:,Slew,Num Section:,1,,,,,
Section Config Type:,Column,,,,,,Section Config Type:,Column,,,,,,,
Start Wavelength (nm):,900,,,,,,Start Wavelength (nm):,900,,,,,,,
End Wavelength (nm):,1700,,,,,,End Wavelength (nm):,1700,,,,,,,
Pattern Width (nm):,7.03,,,,,,Pattern Width (nm):,7.03,,,,,,,
Exposure (ms):,0.635,,,,,,Exposure (ms):,0.635,,,,,,,
Digital Resolution:,228,,,,,,Digital Resolution:,228,,,,,,,
Num Repeats:,20,,,,,,Num Repeats:,20,,,,,,,
PGA Gain:,64,(FixedPGA),,,,,PGA Gain:,64,(AutoPGA),,,,,,
System Temp (C):,40.54,,,,,,System Temp (C):,40.23,,,,,,,
Humidity (%):,23.22,,,,,,Humidity (%):,23.5,,,,,,,
Lamp Indicator:,1114,,,,,,Lamp Indicator:,1115,,,,,,,
Data Date-Time:,2023/11/13T11:32:42,,,,,,Data Date-Time:,2023/11/13T11:31:10,,,,,,,
Total Measurement Time in sec:,6.795606,,,,,,,,,,,,,,
,,,,,,,,,,,,,,,
***General Information***,,,,,,,***Calibration Coefficients***,,,,,,,,
Model Name:,NIR-S-G1,,,,,,Shift Vector Coefficients:,-5.08535400046452,0.0413457073195706,-8.39863846568903E-05,,,,,
Serial Number:,B07R011,(95UB122GC0AB07R011),,,,,Pixel to Wavelength Coefficients:,1794.37724621797,-0.920219689099738,-0.000237242138379873,,,,,
GUI Version:,3.9.4,Revision:,526,,,,Versions (Cal/Ref/Cfg):,1,3,1,,,,,
TIVA Version:,2.4.7,,,,,,***Lamp Usage ***,,,,,,,,
DLPC Version:,2.3.1,,,,,,Total Time(hh:mm:ss):,1hr 54min 24sec ,,,,,,,
UUID:,DE:67:0C:88:67:2B:47:21,,,,,,***Device/Error/Activation Status***,,,,,,,,
Main Board Version:,D,,,,,,Device Status:,0x00000001,Activation Status:,Activated,,,,,
Detector Board Version:,B,,,,,,Error status:,0x00000000,Error Code:,0x00000000000000000000000000000000,,,,,
,,,,,,,,,Error Details:,Not found,,,,,
***Scan Data***,,,,,,,,,,,,,,,
Wavelength (nm),Absorbance (AU),Reference Signal (unitless),Sample Signal (unitless)
901.81429527209,0.222748580689365,86160,51589
905.716563509274,0.221146771110315,93344,56097
909.614561387966,0.219383197390904,100879,60872
913.508288908168,0.218496931070473,109925,66466
917.397746069878,0.216774642118418,120858,73367
921.282932873098,0.215689230646222,134254,81703
925.163849317827,0.215573242046614,150672,91719
929.040495404065,0.213322845623261,169024,103425
932.912871131812,0.21183271073387,188292,115611
938.069395988934,0.211278391849132,212384,130570
941.931807546869,0.210338663627957,228107,140540
945.789948746314,0.209961010206665,242241,149378
949.643819587268,0.20952960644687,254773,157262
953.493420069731,0.207180776144976,266241,165232
957.338750193702,0.207314152491168,277707,172295
961.179809959184,0.20662484803359,288364,179191
965.016599366174,0.206132041684575,298601,185763
968.849118414673,0.206132643020783,308807,192112
973.952501032798,0.204372246580843,321686,200937
977.775055911486,0.204751856518563,331663,206988
981.593340431682,0.203483153042895,339914,212758
985.407354593388,0.202766983299749,347664,217968
989.217098396603,0.20238071450346,355060,222803
993.022571841327,0.202213500052273,361633,227015
996.823774927561,0.201510958687164,366836,230654
1000.6207076553,0.200628053470615,372581,234743
1004.41337002455,0.199956106252929,377214,238030
1008.20176203532,0.19956379370657,380458,240294
1013.24630860312,0.199188809999868,383969,242721
1017.02473644407,0.198250133277419,386417,244797
1020.79889392653,0.198303082245814,388297,245958
1024.5687810505,0.197689665368939,389327,246959
1028.33439781597,0.197441627298806,390028,247545
1032.09574422296,0.196403505079375,389878,248042
1035.85282027145,0.196626650533809,390709,248443
1039.60562596146,0.195549287980699,390301,248800
1043.35416129297,0.195426663319633,390597,249059
1048.34556562178,0.194477649661597,389807,249099
1052.08413678348,0.194600971194743,389769,249004
1055.81843758669,0.194328602085978,389412,248932
1059.54846803141,0.193891837136444,389355,249146
1063.27422811764,0.19367972459195,389382,249285
1066.99571784538,0.193130485953781,389478,249662
1070.71293721462,0.192840268029449,390161,250267
1074.42588622538,0.192906796203868,391122,250845
1078.13456487764,0.192680099499433,392375,251780
1081.83897317142,0.192461181693239,394076,252999
1086.77154144991,0.191712618733027,395935,254631
1090.46598557387,0.191787767128693,398299,256107
1094.15615933934,0.191512727158181,400961,257982
1097.84206274632,0.191105689880487,403208,259671
1101.52369579481,0.191039181586731,406183,261627
1105.20105848481,0.190551519233571,409463,264036
1108.87415081632,0.190635799393103,412944,266229
1112.54297278934,0.190737887716518,416431,268414
1116.20752440387,0.190155114279577,420107,271147
1121.08695044336,0.190094993966377,425364,274578
1124.74153788807,0.189961232614868,429814,277536
1128.3918549743,0.190234813086419,434537,280409
1132.03790170203,0.190112501235694,439242,283525
1135.67967807127,0.19062549887478,443904,286196
1139.31718408202,0.190292740147308,448677,289495
1142.95041973428,0.190592707304455,454133,292813
1146.57938502805,0.190743345304838,459308,296047
1150.20407996333,0.19019444942466,464444,299736
1153.82450454012,0.190904920413564,470500,303148
1158.6450945293,0.191147411089561,478341,308028
1162.25555493627,0.190947734346297,484243,311972
1165.86174498476,0.191580284725756,490848,315767
1169.46366467475,0.191297735727341,497162,320037
1173.06131400625,0.191048483226179,504003,324627
1176.65469297927,0.191432603760121,511451,329133
1180.24380159379,0.192024209867878,518528,333233
1183.82863984982,0.191852339158101,526338,338386
1187.40920774736,0.192598238842862,534368,342959
1192.17665549754,0.192447835726912,544681,349699
1195.74725922527,0.192622605543492,552886,354824
1199.3135925945,0.192504407417183,561403,360388
1202.87565560525,0.19277907901253,569566,365397
1206.43344825751,0.192786434479659,578057,370838
1209.98697055127,0.192899504735698,586847,376379
1213.53622248654,0.192868324005523,595662,382060
1217.08120406333,0.192805135784728,604082,387517
1220.62191528162,0.192526057467987,612555,393205
1224.15835614142,0.192348690919596,620650,398564
1228.86696784128,0.19224720915523,631596,405688
1232.39344453127,0.192170380824917,639194,410641
1235.91565086277,0.192028138047121,646723,415614
1239.43358683578,0.192120032782182,653915,420147
1242.94725245029,0.191867115739243,660492,424620
1246.45664770632,0.191752364614833,667037,428941
1249.96177260386,0.191934670152141,672647,432367
1253.4626271429,0.192035097876946,678266,435878
1256.95921132345,0.192115749895858,684107,439550
1261.61468078432,0.192032140453443,693262,445518
1265.10130079506,0.191753154541284,700177,450251
1268.58365044731,0.192111327628567,706907,454204
1272.06172974107,0.192064774586614,713277,458346
1275.53553867634,0.191878278414313,719042,462249
1279.00507725312,0.191901984512068,724207,465544
1282.4703454714,0.191970949345845,729349,468775
1285.9313433312,0.191690828400858,734201,472198
1289.38807083251,0.191651335435042,738077,474734
1292.84052797532,0.191912131646834,741837,476866
1297.43716138587,0.19175578718989,746369,479952
1300.87965435887,0.192033044746413,749866,481893
1304.31787697338,0.191852479374388,751973,483448
1307.7518292294,0.191846194183575,754485,485070
1311.18151112693,0.191960605879806,756543,486265
1314.60692266597,0.19226140655912,758403,487123
1318.02806384652,0.19217657946419,759592,487982
1321.44493466858,0.192635442146836,760596,488111
1324.85753513215,0.192873839363952,761617,488498
1329.4010263037,0.193190100141434,762008,488393
1332.80366259745,0.193614532664541,761841,487809
1336.20202853272,0.194100859263539,761486,487036
1339.59612410949,0.19456980225362,761116,486274
1342.98594932777,0.195161396734815,760047,484930
1346.37150418756,0.195915330883306,758441,483066
1349.75278868886,0.196767704580531,756758,481049
1353.12980283167,0.197200102582805,753753,478662
1356.50254661599,0.197668244842174,751555,476752
1359.87102004182,0.19825812302702,748256,474015
1364.35567516305,0.199288228937476,745805,471343
1367.71418441907,0.199392534181423,743713,469908
1371.06842331659,0.200157972067632,741112,467440
1374.41839185563,0.200302050427174,736251,464220
1377.76409003617,0.200821257019195,730407,459985
1381.10551785823,0.201598179026238,724162,455237
1384.44267532179,0.202654306544479,718464,450558
1387.77556242686,0.203691683955395,713098,446126
1391.10417917344,0.205389838788347,707817,441094
1395.53569205567,0.207808385395748,702125,435117
1398.85434463244,0.209858778480088,698126,430601
1402.16872685072,0.212266149309504,694592,426053
1405.47883871051,0.215097804983705,691771,421565
1408.7846802118,0.218090975142577,689057,417027
1412.08625135461,0.221614521137063,686468,412103
1415.38355213892,0.22414695136401,683804,408117
1418.67658256475,0.227273674878569,681937,404083
1421.96534263208,0.229810859935416,680487,400875
1425.24983234092,0.23209391011612,679026,397917
1429.62250917284,0.234671991098074,677059,394416
1432.89703471187,0.235783743311801,676163,392887
1436.16728989241,0.23680671657885,674856,391205
1439.43327471445,0.237368412426722,674123,390275
1442.69498917801,0.237590486244635,672788,389303
1445.95243328308,0.238096202385383,672295,388565
1449.20560702965,0.238225034701218,671392,387928
1452.45451041774,0.238160754644761,669268,386758
1455.69914344733,0.238776632918401,667076,384945
1460.01867804025,0.238813498834132,664358,383344
1463.25334690003,0.239070813262272,661972,381741
1466.48374540132,0.238305751069972,658811,380588
1469.70987354412,0.238736926213536,655688,378408
1472.93173132843,0.238234815355182,652715,377128
1476.14931875425,0.237789025770965,649381,375587
1479.36263582158,0.237356391425647,645748,373858
1482.57168253042,0.237348123352785,641941,371661
1485.77645888076,0.236873386910782,637946,369752
1488.97696487262,0.236474917369997,633729,367645
1493.23766341522,0.235749130040922,627386,364574
1496.42820523726,0.235415671728135,623161,362397
1499.61447670082,0.234689020710369,617764,359860
1502.79647780588,0.234219690547994,612405,357124
1505.97420855245,0.233468658698179,606920,354538
1509.14766894053,0.233118129573364,601381,351586
1512.31685897012,0.23220296048049,595061,348625
1515.48177864122,0.231836413933375,588578,345118
1518.64242795382,0.231347827209602,582976,342218
1522.84998425743,0.230668139615463,573873,337402
1526.00066940022,0.230106441068308,567118,333862
1529.14708418453,0.229745764210101,559865,329866
1532.28922861034,0.22940261396274,552378,325712
1535.42710267766,0.229285632638554,544598,321211
1538.5607063865,0.228983730538809,536985,316941
1541.69003973684,0.228446263474818,528393,312256
1544.81510272869,0.228467700260235,519995,307278
1547.93589536205,0.228446603845539,511431,302232
1551.05241763692,0.227958096195722,502763,297444
1555.2011378902,0.228058668756239,491508,290718
1558.30769599526,0.22757935217715,482841,285907
1561.40998374183,0.227286341218022,473888,280795
1564.5080011299,0.227156705090564,464727,275449
1567.60174815948,0.226852671731197,455343,270076
1570.69122483058,0.227091845748657,446191,264502
1573.77643114318,0.227349926072719,436825,258796
1576.85736709729,0.227215824403371,427180,253160
1579.93403269291,0.22643361417998,417432,247829
1584.0296107072,0.226287563821199,404739,240374
1587.09631213301,0.226296452844907,395461,234859
1590.15874320033,0.226335037821409,386401,229458
1593.21690390916,0.226002603650399,376790,223922
1596.27079425949,0.225648106763649,368113,218944
1599.32041425134,0.225062343765469,358958,213787
1602.36576388469,0.224760212428164,349923,208551
1605.40684315956,0.224179355750149,340742,203351
1608.44365207593,0.224419964798816,331755,197878
1611.47619063381,0.22338069219325,322616,192888
1615.51293259778,0.223690534185597,311130,185888
1618.53550698585,0.223260511679835,302169,180713
1621.55381101543,0.222877559467235,293730,175821
1624.56784468652,0.223048290890414,284844,170435
1627.57760799912,0.222792622472481,276679,165647
1630.58310095323,0.223068515399815,268005,160352
1633.58432354884,0.223863029379605,259618,155050
1636.58127578597,0.22316009662673,251194,150262
1639.5739576646,0.223174538235785,242994,145352
1643.55755738958,0.223646987612582,232089,138678
1646.5402750984,0.223699446025823,224113,133896
1649.51872244873,0.224771746758416,216264,128888
1652.49289944057,0.226412078591026,208181,123603
1655.46280607392,0.227019225219645,200481,118865
1658.42844234878,0.228187569189535,192758,113979
1661.38980826515,0.229945931727738,185184,109058
1664.34690382303,0.230007156764181,176768,104087
1667.29972902242,0.232153296210045,167791,98314
1670.24828386331,0.231732149056988,158827,93152
1674.17304753796,0.232764063674368,143512,83970
1677.11163820905,0.232326741088165,130745,76577
1680.04595852164,0.232355126364124,117203,68641
1682.97600847574,0.231717692054314,102873,60337
1685.90178807136,0.234708440360897,89570,52174
1688.82329730848,0.234215377168934,76525,44626
1691.74053618711,0.234744794217538,65225,37990
1694.65350470725,0.236429725016618,55144,31994
1697.56220286889,0.233921246500667,46726,27267
1701.43382430455,0.231730876459869,37456,21968
