***Scan Config Information***,,,,,,,***Reference Scan Information***,,,,,,,,
Scan Config Name:,herbario,,,,,,Scan Config Name:,Local New Reference,,,,,,,
Scan Config Type:,Slew,Num Section:,1,,,,Scan Config Type:,Slew,Num Section:,1,,,,,
Section Config Type:,Column,,,,,,Section Config Type:,Column,,,,,,,
Start Wavelength (nm):,900,,,,,,Start Wavelength (nm):,900,,,,,,,
End Wavelength (nm):,1700,,,,,,End Wavelength (nm):,1700,,,,,,,
Pattern Width (nm):,7.03,,,,,,Pattern Width (nm):,7.03,,,,,,,
Exposure (ms):,0.635,,,,,,Exposure (ms):,0.635,,,,,,,
Digital Resolution:,228,,,,,,Digital Resolution:,228,,,,,,,
Num Repeats:,20,,,,,,Num Repeats:,20,,,,,,,
PGA Gain:,64,(FixedPGA),,,,,PGA Gain:,64,(AutoPGA),,,,,,
System Temp (C):,41.6,,,,,,System Temp (C):,41.3,,,,,,,
Humidity (%):,18.1,,,,,,Humidity (%):,18.28,,,,,,,
Lamp Indicator:,1127,,,,,,Lamp Indicator:,1127,,,,,,,
Data Date-Time:,2023/11/10T18:56:51,,,,,,Data Date-Time:,2023/11/10T18:53:51,,,,,,,
Total Measurement Time in sec:,6.7300551,,,,,,,,,,,,,,
,,,,,,,,,,,,,,,
***General Information***,,,,,,,***Calibration Coefficients***,,,,,,,,
Model Name:,NIR-S-G1,,,,,,Shift Vector Coefficients:,-5.08535400046452,0.0413457073195706,-8.39863846568903E-05,,,,,
Serial Number:,B07R011,(95UB122GC0AB07R011),,,,,Pixel to Wavelength Coefficients:,1794.37724621797,-0.920219689099738,-0.000237242138379873,,,,,
GUI Version:,3.9.4,Revision:,526,,,,Versions (Cal/Ref/Cfg):,1,3,1,,,,,
TIVA Version:,2.4.7,,,,,,***Lamp Usage ***,,,,,,,,
DLPC Version:,2.3.1,,,,,,Total Time(hh:mm:ss):,1hr 39min 3sec ,,,,,,,
UUID:,DE:67:0C:88:67:2B:47:21,,,,,,***Device/Error/Activation Status***,,,,,,,,
Main Board Version:,D,,,,,,Device Status:,0x00000001,Activation Status:,Activated,,,,,
Detector Board Version:,B,,,,,,Error status:,0x00000000,Error Code:,0x00000000000000000000000000000000,,,,,
,,,,,,,,,Error Details:,Not found,,,,,
***Scan Data***,,,,,,,,,,,,,,,
Wavelength (nm),Absorbance (AU),Reference Signal (unitless),Sample Signal (unitless)
901.81429527209,0.171929190390924,85310,57421
905.716563509274,0.170805832771941,92613,62498
909.614561387966,0.172540698785088,100317,67427
913.508288908168,0.17160551504314,109224,73572
917.397746069878,0.171673576315402,119865,80727
921.282932873098,0.16930162531885,133024,90080
925.163849317827,0.168967960440271,148876,100892
929.040495404065,0.16877556536576,167592,113626
932.912871131812,0.167907009755273,186689,126827
938.069395988934,0.166232840137207,210262,143393
941.931807546869,0.163873120351304,226231,155124
945.789948746314,0.164077826173985,240355,164731
949.643819587268,0.163895382387051,252826,173351
953.493420069731,0.162100464817145,264222,181915
957.338750193702,0.160791593108261,275165,190021
961.179809959184,0.161533438540119,286458,197482
965.016599366174,0.159466507777541,296243,205202
968.849118414673,0.158720582720779,306287,212524
973.952501032798,0.158527720295384,319260,221624
977.775055911486,0.158008246414436,328671,228430
981.593340431682,0.157551920718232,337253,234641
985.407354593388,0.157118064639815,345174,240392
989.217098396603,0.156612045944895,352283,245629
993.022571841327,0.156180692640944,358739,250379
996.823774927561,0.155381407990131,363953,254486
1000.6207076553,0.15534427659644,369509,258393
1004.41337002455,0.15532690106951,374093,261609
1008.20176203532,0.154704023840189,377615,264451
1013.24630860312,0.154911725886327,381180,266820
1017.02473644407,0.154652047442366,383692,268739
1020.79889392653,0.154757769368722,385035,269614
1024.5687810505,0.154440663243257,386602,270909
1028.33439781597,0.154467558830239,386997,271169
1032.09574422296,0.153691957513535,387043,271686
1035.85282027145,0.153904828274395,387562,271917
1039.60562596146,0.154329056980749,387654,271716
1043.35416129297,0.153736694563794,387620,272063
1048.34556562178,0.154219184287209,387245,271498
1052.08413678348,0.153857239507127,386911,271490
1055.81843758669,0.154183012273467,386802,271210
1059.54846803141,0.1540055631694,386500,271109
1063.27422811764,0.154049651203944,386515,271092
1066.99571784538,0.154131129057169,386559,271072
1070.71293721462,0.154827482251649,387325,271174
1074.42588622538,0.154286384075674,388158,272096
1078.13456487764,0.154674321886802,389640,272891
1081.83897317142,0.154991864422994,391321,273868
1086.77154144991,0.155212427939622,393414,275193
1090.46598557387,0.15530820698677,395730,276752
1094.15615933934,0.155956474156932,398147,278027
1097.84206274632,0.156153679708072,400570,279592
1101.52369579481,0.156712993252187,403644,281375
1105.20105848481,0.156959520704013,406764,283389
1108.87415081632,0.157704348983129,410450,285467
1112.54297278934,0.158336452511239,413608,287245
1116.20752440387,0.158697522121768,417513,289716
1121.08695044336,0.158958135858947,422799,293208
1124.74153788807,0.159770419766072,427260,295748
1128.3918549743,0.160788927668598,431963,298303
1132.03790170203,0.161353082999052,436638,301140
1135.67967807127,0.162260570066953,441332,303742
1139.31718408202,0.162636823027136,446371,306944
1142.95041973428,0.163294378341283,451724,310155
1146.57938502805,0.164194862786249,456716,312933
1150.20407996333,0.164282501618072,461948,316454
1153.82450454012,0.165123619524857,467850,319877
1158.6450945293,0.16599083769008,475613,324536
1162.25555493627,0.166350308023961,481378,328198
1165.86174498476,0.167126516636678,487927,332069
1169.46366467475,0.167345106587476,494644,336471
1173.06131400625,0.168066765481115,501479,340554
1176.65469297927,0.168491565444419,508697,345118
1180.24380159379,0.16914885129389,516044,349573
1183.82863984982,0.168874283204308,523497,354846
1187.40920774736,0.168786381351436,531412,360284
1192.17665549754,0.169341454543247,541932,366947
1195.74725922527,0.16940454885385,550179,372477
1199.3135925945,0.169278476854406,558451,378187
1202.87565560525,0.168925224411628,566739,384112
1206.43344825751,0.168649329344711,574918,389903
1209.98697055127,0.168589183684258,583957,396088
1213.53622248654,0.168272584210626,592474,402158
1217.08120406333,0.167484621903335,600594,408410
1220.62191528162,0.166905197728808,609207,414820
1224.15835614142,0.16650323292208,617397,420786
1228.86696784128,0.166095646912988,628193,428546
1232.39344453127,0.165257525007915,635943,434671
1235.91565086277,0.164826768258464,643097,439997
1239.43358683578,0.164457538752465,650340,445331
1242.94725245029,0.16388962111033,656724,450291
1246.45664770632,0.163777674118566,663587,455114
1249.96177260386,0.163265791439983,668855,459268
1253.4626271429,0.163417007543205,674404,462917
1256.95921132345,0.162803247165223,680004,467421
1261.61468078432,0.162823022898057,689269,473768
1265.10130079506,0.162411982409553,696303,479056
1268.58365044731,0.162456437551426,702795,483473
1272.06172974107,0.162341233971908,709311,488085
1275.53553867634,0.161996068303847,715022,492406
1279.00507725312,0.162004117575979,719987,495816
1282.4703454714,0.161912106880478,725363,499624
1285.9313433312,0.161926274888023,729735,502619
1289.38807083251,0.16139325588425,733486,505823
1292.84052797532,0.161452714793454,737289,508376
1297.43716138587,0.16140393243583,742183,511808
1300.87965435887,0.161470552241527,745228,513829
1304.31787697338,0.16139271410118,747809,515701
1307.7518292294,0.161731965417644,750264,516990
1311.18151112693,0.161404836790826,752260,518756
1314.60692266597,0.161650068055899,753924,519610
1318.02806384652,0.161919436367622,755289,520228
1321.44493466858,0.161880546035812,755969,520743
1324.85753513215,0.162095573272224,756859,521098
1329.4010263037,0.162695085726009,757442,520780
1332.80366259745,0.16306636573315,757509,520381
1336.20202853272,0.163397902320027,756823,519513
1339.59612410949,0.163947853045387,756494,518630
1342.98594932777,0.164799417681105,755674,517053
1346.37150418756,0.165264835600203,753880,515273
1349.75278868886,0.166202656662917,752240,513043
1353.12980283167,0.167008241189875,749669,510342
1356.50254661599,0.167711376566801,747610,508117
1359.87102004182,0.168334416257563,744621,505360
1364.35567516305,0.169418875085517,742038,502351
1367.71418441907,0.17015843210823,739972,500100
1371.06842331659,0.170892527500663,737059,497290
1374.41839185563,0.171537675253246,732578,493533
1377.76409003617,0.172247324745602,726412,488580
1381.10551785823,0.17295682864244,720587,483871
1384.44267532179,0.173926494557106,714529,478733
1387.77556242686,0.175226868144145,708974,473591
1391.10417917344,0.176555203915181,703848,468731
1395.53569205567,0.179876264602894,698594,461688
1398.85434463244,0.182455049612383,694608,456336
1402.16872685072,0.185204814212537,690886,451026
1405.47883871051,0.188742886196086,688076,445547
1408.7846802118,0.192573498915072,685327,439870
1412.08625135461,0.196507363662431,682658,434206
1415.38355213892,0.200838977236864,680486,428529
1418.67658256475,0.204560469227271,678278,423494
1421.96534263208,0.208665299432149,676931,418677
1425.24983234092,0.212415618188582,675693,414318
1429.62250917284,0.216101019307229,673517,409494
1432.89703471187,0.21890931547648,672728,406378
1436.16728989241,0.220871541577117,671361,403724
1439.43327471445,0.222076308433826,670693,402205
1442.69498917801,0.223398420122188,669682,400378
1445.95243328308,0.224156050659871,668973,399257
1449.20560702965,0.224359456142996,667657,398285
1452.45451041774,0.224702369739773,665683,396794
1455.69914344733,0.22515909873197,663604,395139
1460.01867804025,0.224778694420502,660892,393869
1463.25334690003,0.224710809333965,658398,392444
1466.48374540132,0.224290899342537,655375,391020
1469.70987354412,0.224166272619588,652439,389380
1472.93173132843,0.223749978509133,649318,387889
1476.14931875425,0.222789491973511,645779,386629
1479.36263582158,0.222316016186971,642586,385137
1482.57168253042,0.22197142267457,638517,383002
1485.77645888076,0.2212675302768,634457,381184
1488.97696487262,0.220797291916159,630362,379134
1493.23766341522,0.219782960248226,624023,376199
1496.42820523726,0.219123416302598,619641,374125
1499.61447670082,0.218625973987368,614546,371474
1502.79647780588,0.217519343007353,609162,369159
1505.97420855245,0.216788314025001,603856,366560
1509.14766894053,0.216153314769641,598256,363692
1512.31685897012,0.21492308564567,592212,361039
1515.48177864122,0.214421706984663,585714,357490
1518.64242795382,0.213358222349708,579612,354633
1522.84998425743,0.212701392219448,570893,349827
1526.00066940022,0.21171092316544,564532,346719
1529.14708418453,0.211316357871058,557244,342554
1532.28922861034,0.210983008716598,549887,338291
1535.42710267766,0.209888576179711,541878,334205
1538.5607063865,0.209887258261553,534178,329457
1541.69003973684,0.209602982956415,525837,324525
1544.81510272869,0.208885179802828,517343,319811
1547.93589536205,0.208194860888775,508798,315029
1551.05241763692,0.208005295473075,500249,309871
1555.2011378902,0.20797737056236,488904,302863
1558.30769599526,0.207621115035626,480319,297789
1561.40998374183,0.206968445966917,471566,292802
1564.5080011299,0.207051414260534,462782,287293
1567.60174815948,0.206461680214936,453189,281720
1570.69122483058,0.206425107271109,443963,276008
1573.77643114318,0.205963346309592,434281,270276
1576.85736709729,0.205890463755337,425181,264657
1579.93403269291,0.205279827074226,415436,258955
1584.0296107072,0.204778235435513,403028,251511
1587.09631213301,0.203383999852942,393491,246349
1590.15874320033,0.203809502820566,384808,240677
1593.21690390916,0.203373313262867,375418,235040
1596.27079425949,0.201996601567564,366030,229890
1599.32041425134,0.201160721102459,357309,224845
1602.36576388469,0.200453901350497,348370,219577
1605.40684315956,0.199006212740457,339162,214487
1608.44365207593,0.199243013642755,330313,208777
1611.47619063381,0.198275653281029,321213,203478
1615.51293259778,0.197597001160974,309732,196512
1618.53550698585,0.196567163358781,300836,191321
1621.55381101543,0.196170792471785,292504,186192
1624.56784468652,0.195815819867346,283864,180840
1627.57760799912,0.1946817338391,275327,175860
1630.58310095323,0.194748591738329,266906,170455
1633.58432354884,0.19422997278887,258680,165399
1636.58127578597,0.193326346138171,250025,160198
1639.5739576646,0.193924347486687,242266,155013
1643.55755738958,0.194139717811083,231536,148074
1646.5402750984,0.194203745711486,223488,142906
1649.51872244873,0.194791697304233,215646,137705
1652.49289944057,0.195573928279999,207720,132405
1655.46280607392,0.195264656121354,199986,127566
1658.42844234878,0.196231149136152,192475,122502
1661.38980826515,0.198488538292201,184763,116984
1664.34690382303,0.19798346901391,176864,112113
1667.29972902242,0.198530397931788,168292,106545
1670.24828386331,0.199536465934223,159324,100634
1674.17304753796,0.199385450115971,145001,91619
1677.11163820905,0.201264543055548,132645,83450
1680.04595852164,0.202179218347883,119363,74936
1682.97600847574,0.200923801117588,105515,66434
1685.90178807136,0.19971204643893,91988,58079
1688.82329730848,0.200983266261409,79159,49833
1691.74053618711,0.201531773195805,67421,42390
1694.65350470725,0.198578952507504,57023,36097
1697.56220286889,0.198947807636826,48178,30472
1701.43382430455,0.205542717610706,38953,24266
