***Scan Config Information***,,,,,,,***Reference Scan Information***,,,,,,,,
Scan Config Name:,herbario,,,,,,Scan Config Name:,Local New Reference,,,,,,,
Scan Config Type:,Slew,Num Section:,1,,,,Scan Config Type:,Slew,Num Section:,1,,,,,
Section Config Type:,Column,,,,,,Section Config Type:,Column,,,,,,,
Start Wavelength (nm):,900,,,,,,Start Wavelength (nm):,900,,,,,,,
End Wavelength (nm):,1700,,,,,,End Wavelength (nm):,1700,,,,,,,
Pattern Width (nm):,7.03,,,,,,Pattern Width (nm):,7.03,,,,,,,
Exposure (ms):,0.635,,,,,,Exposure (ms):,0.635,,,,,,,
Digital Resolution:,228,,,,,,Digital Resolution:,228,,,,,,,
Num Repeats:,20,,,,,,Num Repeats:,20,,,,,,,
PGA Gain:,64,(FixedPGA),,,,,PGA Gain:,64,(AutoPGA),,,,,,
System Temp (C):,34.08,,,,,,System Temp (C):,32.9,,,,,,,
Humidity (%):,52.49,,,,,,Humidity (%):,54.79,,,,,,,
Lamp Indicator:,1061,,,,,,Lamp Indicator:,1054,,,,,,,
Data Date-Time:,2023/11/10T11:39:03,,,,,,Data Date-Time:,2023/11/10T11:35:47,,,,,,,
Total Measurement Time in sec:,6.9089373,,,,,,,,,,,,,,
,,,,,,,,,,,,,,,
***General Information***,,,,,,,***Calibration Coefficients***,,,,,,,,
Model Name:,NIR-S-G1,,,,,,Shift Vector Coefficients:,-5.08535400046452,0.0413457073195706,-8.39863846568903E-05,,,,,
Serial Number:,B07R011,(95UB122GC0AB07R011),,,,,Pixel to Wavelength Coefficients:,1794.37724621797,-0.920219689099738,-0.000237242138379873,,,,,
GUI Version:,3.9.4,Revision:,526,,,,Versions (Cal/Ref/Cfg):,1,3,1,,,,,
TIVA Version:,2.4.7,,,,,,***Lamp Usage ***,,,,,,,,
DLPC Version:,2.3.1,,,,,,Total Time(hh:mm:ss):,47min 58sec ,,,,,,,
UUID:,DE:67:0C:88:67:2B:47:21,,,,,,***Device/Error/Activation Status***,,,,,,,,
Main Board Version:,D,,,,,,Device Status:,0x00000001,Activation Status:,Activated,,,,,
Detector Board Version:,B,,,,,,Error status:,0x00000000,Error Code:,0x00000000000000000000000000000000,,,,,
,,,,,,,,,Error Details:,Not found,,,,,
***Scan Data***,,,,,,,,,,,,,,,
Wavelength (nm),Absorbance (AU),Reference Signal (unitless),Sample Signal (unitless)
901.81429527209,0.217459241021049,87021,52743
905.716563509274,0.217511181167384,94876,57497
909.614561387966,0.21494009329143,102713,62616
913.508288908168,0.213955586141871,112045,68460
917.397746069878,0.212486976618895,123786,75890
921.282932873098,0.211525180128249,138609,85166
925.163849317827,0.210950990692671,156274,96147
929.040495404065,0.210064821060891,175944,108470
932.912871131812,0.208057710558923,195436,121045
938.069395988934,0.206471126657907,218815,136021
941.931807546869,0.204681549294539,234016,146071
945.789948746314,0.203276244234342,247343,154890
949.643819587268,0.201693312720455,259385,163024
953.493420069731,0.202021275302744,270512,169889
957.338750193702,0.200082164784083,281497,177579
961.179809959184,0.199142637577296,292018,184615
965.016599366174,0.198514800621923,302185,191319
968.849118414673,0.198055319820547,312380,197983
973.952501032798,0.19750462568548,325949,206845
977.775055911486,0.196561990789022,335672,213478
981.593340431682,0.19631501435124,344192,219021
985.407354593388,0.195591080450299,352268,224534
989.217098396603,0.1950958960262,359981,229712
993.022571841327,0.194033358404745,365764,233974
996.823774927561,0.1938754141124,371488,237722
1000.6207076553,0.1932254006719,377113,241683
1004.41337002455,0.19261682874104,381582,244890
1008.20176203532,0.191590554337421,384964,247645
1013.24630860312,0.190927105147733,388311,250180
1017.02473644407,0.190621802202704,390481,251755
1020.79889392653,0.190052337275463,392488,253381
1024.5687810505,0.189036566608669,393407,254569
1028.33439781597,0.188437012140958,393943,255268
1032.09574422296,0.187724508108717,393667,255508
1035.85282027145,0.187720896680677,394431,256006
1039.60562596146,0.186885698518322,394256,256385
1043.35416129297,0.18678865476114,394377,256521
1048.34556562178,0.185824828273171,393966,256823
1052.08413678348,0.185354088241452,393648,256894
1055.81843758669,0.184900548969641,393231,256890
1059.54846803141,0.184434414479306,393326,257228
1063.27422811764,0.184495093657403,393644,257400
1066.99571784538,0.183600719675857,393524,257852
1070.71293721462,0.183292843676143,394180,258465
1074.42588622538,0.182731848143631,395144,259432
1078.13456487764,0.182281221911471,396274,260444
1081.83897317142,0.182306349459984,398167,261673
1086.77154144991,0.181629632989814,400186,263410
1090.46598557387,0.181993323994542,402761,264883
1094.15615933934,0.181049025377482,405303,267135
1097.84206274632,0.180575825248676,407526,268893
1101.52369579481,0.180814567661951,410654,270808
1105.20105848481,0.180394276786572,414032,273300
1108.87415081632,0.180507849400525,417571,275564
1112.54297278934,0.180359341320682,420932,277877
1116.20752440387,0.179797684856882,424627,280679
1121.08695044336,0.1798728079678,430069,284227
1124.74153788807,0.18054640458321,434307,286583
1128.3918549743,0.180028727976673,439095,290088
1132.03790170203,0.180375676863675,443783,292951
1135.67967807127,0.180940290919079,448474,295663
1139.31718408202,0.180784735388985,453440,299044
1142.95041973428,0.181320759425702,459180,302456
1146.57938502805,0.181147211940972,464047,305784
1150.20407996333,0.181725564125306,469174,308751
1153.82450454012,0.182084441811071,475008,312332
1158.6450945293,0.18254460345212,483270,317428
1162.25555493627,0.183270997339788,489386,320908
1165.86174498476,0.183418102824086,495721,324952
1169.46366467475,0.183661186868595,502362,329121
1173.06131400625,0.183887014617171,509549,333656
1176.65469297927,0.184228140968376,516474,337925
1180.24380159379,0.184575157780694,523744,342408
1183.82863984982,0.184630808277563,531740,347591
1187.40920774736,0.184894610083529,539758,352618
1192.17665549754,0.185321927660663,550520,359295
1195.74725922527,0.185366240754164,558566,364509
1199.3135925945,0.185586364357199,567349,370053
1202.87565560525,0.185798082130068,575921,375461
1206.43344825751,0.185329361425338,584101,381205
1209.98697055127,0.185529544603191,593148,386931
1213.53622248654,0.18480083932815,601769,393214
1217.08120406333,0.184331030518263,610277,399205
1220.62191528162,0.184314730400124,619099,404991
1224.15835614142,0.18398837481432,627544,410824
1228.86696784128,0.18305905824007,638197,418693
1232.39344453127,0.182805333912085,646314,424266
1235.91565086277,0.182651873505213,654012,429471
1239.43358683578,0.182393124141987,661261,434490
1242.94725245029,0.181719643740372,667898,439532
1246.45664770632,0.182156933904419,674999,443758
1249.96177260386,0.18157456823026,680274,447826
1253.4626271429,0.18140478076897,685962,451747
1256.95921132345,0.181127460768736,691412,455627
1261.61468078432,0.180661838373697,700738,462268
1265.10130079506,0.181054572875675,708327,466852
1268.58365044731,0.180813251933149,715006,471516
1272.06172974107,0.18062437046244,721475,475989
1275.53553867634,0.180363914121936,727279,480106
1279.00507725312,0.180426010425851,732569,483529
1282.4703454714,0.180037894051263,737871,487464
1285.9313433312,0.1798794907937,742332,490590
1289.38807083251,0.179935152807911,746439,493241
1292.84052797532,0.179862022778977,749978,495663
1297.43716138587,0.179816957555944,755147,499131
1300.87965435887,0.179784072134522,758536,501409
1304.31787697338,0.179615475608054,760891,503161
1307.7518292294,0.179687203156338,763178,504590
1311.18151112693,0.179570345216809,765144,506026
1314.60692266597,0.180123438755262,767194,506736
1318.02806384652,0.180245432978778,768141,507219
1321.44493466858,0.180743176420903,769175,507320
1324.85753513215,0.180922310792602,770005,507658
1329.4010263037,0.181632299776347,770528,507173
1332.80366259745,0.18224723429606,770249,506272
1336.20202853272,0.183258703991267,769968,504910
1339.59612410949,0.184279790028839,769830,503634
1342.98594932777,0.185051258000143,768568,501916
1346.37150418756,0.186583194315868,767038,499153
1349.75278868886,0.187603666386605,764200,496139
1353.12980283167,0.188873660057545,761025,492635
1356.50254661599,0.190162655430509,758391,489475
1359.87102004182,0.191358183098504,755196,486073
1364.35567516305,0.192817044704685,752097,482455
1367.71418441907,0.193860243973625,750532,480296
1371.06842331659,0.194867799490227,747921,477516
1374.41839185563,0.196224868342816,743270,473066
1377.76409003617,0.197756896652339,737428,467695
1381.10551785823,0.199640628193686,731056,461647
1384.44267532179,0.201778051961812,725089,455631
1387.77556242686,0.204547724700992,719606,449311
1391.10417917344,0.207724220400645,714410,442816
1395.53569205567,0.213192917609102,708767,433821
1398.85434463244,0.218382779086922,704763,426246
1402.16872685072,0.224181180939634,701489,418639
1405.47883871051,0.231158224043334,698880,410435
1408.7846802118,0.23808655248853,696203,402392
1412.08625135461,0.245217006992243,693552,394332
1415.38355213892,0.252298119964089,691066,386564
1418.67658256475,0.258873806824401,689318,379792
1421.96534263208,0.26469079807991,687933,373986
1425.24983234092,0.269941053742916,686490,368717
1429.62250917284,0.275708779336586,684306,362695
1432.89703471187,0.279213429970054,683591,359404
1436.16728989241,0.282372862191511,682116,356029
1439.43327471445,0.284574195802062,681394,353854
1442.69498917801,0.286758840286496,680468,351600
1445.95243328308,0.288142074197439,679709,350091
1449.20560702965,0.289127088738857,678711,348785
1452.45451041774,0.28985777252877,676702,347168
1455.69914344733,0.289893988220307,674388,345952
1460.01867804025,0.289244416603732,671747,345113
1463.25334690003,0.289019483782684,669337,344053
1466.48374540132,0.288476505891711,666103,342819
1469.70987354412,0.286839621448854,662668,342339
1472.93173132843,0.285473812795944,659470,341760
1476.14931875425,0.284291473132587,656432,341113
1479.36263582158,0.282545924628768,652739,340560
1482.57168253042,0.280842435429567,648643,339753
1485.77645888076,0.279302547544886,644713,338894
1488.97696487262,0.277612563555089,640568,338028
1493.23766341522,0.275427837598535,634154,336331
1496.42820523726,0.274086246217066,629527,334910
1499.61447670082,0.272095162191089,624230,333618
1502.79647780588,0.270757582208379,618936,331809
1505.97420855245,0.269530916890341,613299,329717
1509.14766894053,0.268054886138581,607759,327851
1512.31685897012,0.266348974488092,601580,325795
1515.48177864122,0.264843489228327,594955,323326
1518.64242795382,0.263198520184619,588616,321095
1522.84998425743,0.262329461626109,579975,317015
1526.00066940022,0.261029265599086,573103,314198
1529.14708418453,0.259950928057251,565954,311050
1532.28922861034,0.259333355923652,558211,307231
1535.42710267766,0.258024960283509,550420,303857
1538.5607063865,0.257645579450483,542528,299762
1541.69003973684,0.256919240818334,533852,295462
1544.81510272869,0.255791030191926,525462,291575
1547.93589536205,0.25523113872741,516513,286979
1551.05241763692,0.254764869130287,508226,282678
1555.2011378902,0.253810121836,496244,276621
1558.30769599526,0.253429239694756,487763,272132
1561.40998374183,0.253163354759439,478852,267324
1564.5080011299,0.252401873436602,469920,262798
1567.60174815948,0.251945087495052,460325,257703
1570.69122483058,0.251683502464975,450747,252493
1573.77643114318,0.251622557312171,441270,247219
1576.85736709729,0.250821547866186,431611,242254
1579.93403269291,0.249532980758782,421740,237417
1584.0296107072,0.249986801654986,409207,230121
1587.09631213301,0.248457273847643,399534,225474
1590.15874320033,0.248306748761863,390684,220556
1593.21690390916,0.246960077167913,380472,215458
1596.27079425949,0.246542555227302,371596,210634
1599.32041425134,0.24566593013384,362320,205791
1602.36576388469,0.244099659043183,353067,201260
1605.40684315956,0.243589911096958,343727,196166
1608.44365207593,0.242618888701103,334501,191328
1611.47619063381,0.242524318153699,325699,186334
1615.51293259778,0.241428743202581,313406,179754
1618.53550698585,0.240717098657844,304750,175076
1621.55381101543,0.240850055647042,296045,170023
1624.56784468652,0.239749275712642,287183,165352
1627.57760799912,0.239486657824918,278532,160468
1630.58310095323,0.239711554924606,269868,155396
1633.58432354884,0.239412224309334,261161,150486
1636.58127578597,0.239510466530674,252770,145618
1639.5739576646,0.239998931272725,244362,140616
1643.55755738958,0.24177877201027,233315,133710
1646.5402750984,0.242681757188528,225105,128737
1649.51872244873,0.244300041619837,216861,123561
1652.49289944057,0.245828608984566,208356,118298
1655.46280607392,0.246066767411143,199867,113416
1658.42844234878,0.247605085749431,191021,108013
1661.38980826515,0.247063668010182,181759,102904
1664.34690382303,0.246537897654847,171000,96930
1667.29972902242,0.244987692860342,159070,90490
1670.24828386331,0.241008456408647,145968,83801
1674.17304753796,0.237430618122505,125757,72795
1677.11163820905,0.235930028056902,109884,63827
1680.04595852164,0.231781269107877,94674,55520
1682.97600847574,0.229461347700399,80648,47548
1685.90178807136,0.231929243714703,68268,40021
1688.82329730848,0.233518003925239,57811,33767
1691.74053618711,0.231706994863409,48952,28712
1694.65350470725,0.23588780931944,41445,24076
1697.56220286889,0.233963327710019,35188,20532
1701.43382430455,0.238540654523265,28820,16640
