***Scan Config Information***,,,,,,,***Reference Scan Information***,,,,,,,,
Scan Config Name:,herbario,,,,,,Scan Config Name:,Local New Reference,,,,,,,
Scan Config Type:,Slew,Num Section:,1,,,,Scan Config Type:,Slew,Num Section:,1,,,,,
Section Config Type:,Column,,,,,,Section Config Type:,Column,,,,,,,
Start Wavelength (nm):,900,,,,,,Start Wavelength (nm):,900,,,,,,,
End Wavelength (nm):,1700,,,,,,End Wavelength (nm):,1700,,,,,,,
Pattern Width (nm):,7.03,,,,,,Pattern Width (nm):,7.03,,,,,,,
Exposure (ms):,0.635,,,,,,Exposure (ms):,0.635,,,,,,,
Digital Resolution:,228,,,,,,Digital Resolution:,228,,,,,,,
Num Repeats:,20,,,,,,Num Repeats:,20,,,,,,,
PGA Gain:,64,(FixedPGA),,,,,PGA Gain:,64,(AutoPGA),,,,,,
System Temp (C):,41.5,,,,,,System Temp (C):,41.34,,,,,,,
Humidity (%):,24.95,,,,,,Humidity (%):,25.34,,,,,,,
Lamp Indicator:,1123,,,,,,Lamp Indicator:,1125,,,,,,,
Data Date-Time:,2023/11/10T14:15:33,,,,,,Data Date-Time:,2023/11/10T14:11:52,,,,,,,
Total Measurement Time in sec:,6.8494227,,,,,,,,,,,,,,
,,,,,,,,,,,,,,,
***General Information***,,,,,,,***Calibration Coefficients***,,,,,,,,
Model Name:,NIR-S-G1,,,,,,Shift Vector Coefficients:,-5.08535400046452,0.0413457073195706,-8.39863846568903E-05,,,,,
Serial Number:,B07R011,(95UB122GC0AB07R011),,,,,Pixel to Wavelength Coefficients:,1794.37724621797,-0.920219689099738,-0.000237242138379873,,,,,
GUI Version:,3.9.4,Revision:,526,,,,Versions (Cal/Ref/Cfg):,1,3,1,,,,,
TIVA Version:,2.4.7,,,,,,***Lamp Usage ***,,,,,,,,
DLPC Version:,2.3.1,,,,,,Total Time(hh:mm:ss):,59min 7sec ,,,,,,,
UUID:,DE:67:0C:88:67:2B:47:21,,,,,,***Device/Error/Activation Status***,,,,,,,,
Main Board Version:,D,,,,,,Device Status:,0x00000001,Activation Status:,Activated,,,,,
Detector Board Version:,B,,,,,,Error status:,0x00000000,Error Code:,0x00000000000000000000000000000000,,,,,
,,,,,,,,,Error Details:,Not found,,,,,
***Scan Data***,,,,,,,,,,,,,,,
Wavelength (nm),Absorbance (AU),Reference Signal (unitless),Sample Signal (unitless)
901.81429527209,0.203885666786852,87089,54460
905.716563509274,0.202507593750942,94581,59333
909.614561387966,0.202491773720775,102020,64002
913.508288908168,0.203349627749722,111300,69686
917.397746069878,0.202617018865459,122422,76779
921.282932873098,0.201306024039434,135899,85489
925.163849317827,0.203257467425489,152516,95512
929.040495404065,0.20195904054914,170925,107361
932.912871131812,0.202339039239131,190451,119521
938.069395988934,0.202299013342166,214435,134585
941.931807546869,0.20144647234407,230414,144898
945.789948746314,0.20275651965606,244878,153530
949.643819587268,0.202465494690343,257384,161479
953.493420069731,0.20171049486696,268861,168973
957.338750193702,0.202476919420506,280441,175940
961.179809959184,0.202532343145225,291451,182824
965.016599366174,0.202290146813746,301546,189262
968.849118414673,0.203087524574462,311829,195357
973.952501032798,0.202325375907723,324866,203882
977.775055911486,0.202220818312573,334690,210098
981.593340431682,0.20291520793699,343347,215188
985.407354593388,0.202681602129221,351230,220247
989.217098396603,0.202579902685703,358681,224972
993.022571841327,0.202735761394129,365183,228968
996.823774927561,0.202700011495255,370631,232403
1000.6207076553,0.202557142048598,375861,235760
1004.41337002455,0.203106878717641,380564,238408
1008.20176203532,0.20349265245582,384497,240658
1013.24630860312,0.202627441830655,387380,242946
1017.02473644407,0.202909003909078,389790,244299
1020.79889392653,0.203006635352928,391606,245382
1024.5687810505,0.203023979816109,392983,246235
1028.33439781597,0.202589917352756,393107,246559
1032.09574422296,0.202647959503988,393260,246622
1035.85282027145,0.202662622794841,393951,247047
1039.60562596146,0.202982148403123,393917,246844
1043.35416129297,0.202653327248845,393874,247004
1048.34556562178,0.203032330583956,393372,246474
1052.08413678348,0.202534211923137,393106,246590
1055.81843758669,0.202611732445719,392709,246297
1059.54846803141,0.203373188892442,392903,245987
1063.27422811764,0.202384957186151,392802,246484
1066.99571784538,0.202786089417309,392897,246316
1070.71293721462,0.202942360798703,393407,246547
1074.42588622538,0.202136102081261,394321,247579
1078.13456487764,0.202242402688286,395555,248293
1081.83897317142,0.202648160861062,397379,249205
1086.77154144991,0.202180010196558,399603,250870
1090.46598557387,0.20209055894488,401763,252278
1094.15615933934,0.202497645489179,404483,253748
1097.84206274632,0.201920723103514,406829,255559
1101.52369579481,0.202056033713509,409889,257401
1105.20105848481,0.202091298637254,413144,259424
1108.87415081632,0.202273757985905,416794,261606
1112.54297278934,0.202281183365985,420319,263814
1116.20752440387,0.202226439101697,424024,266173
1121.08695044336,0.201650880346006,429395,269902
1124.74153788807,0.202577799016081,433922,272166
1128.3918549743,0.202548745911703,438631,275138
1132.03790170203,0.202229862802444,443273,278254
1135.67967807127,0.202707102704585,447926,280866
1139.31718408202,0.203148800461111,453203,283886
1142.95041973428,0.203110776924236,458546,287258
1146.57938502805,0.203337480149415,463679,290322
1150.20407996333,0.203913926130315,469051,293296
1153.82450454012,0.203990136427646,474874,296885
1158.6450945293,0.20462613571732,483009,301529
1162.25555493627,0.204475686655417,489066,305416
1165.86174498476,0.205095129587084,495800,309180
1169.46366467475,0.205294602635541,502405,313155
1173.06131400625,0.205426757009659,509380,317406
1176.65469297927,0.205541414862316,516523,321772
1180.24380159379,0.206432566477311,523653,325545
1183.82863984982,0.20640025099485,531780,330622
1187.40920774736,0.206396031249881,539574,335471
1192.17665549754,0.206979423130582,550280,341668
1195.74725922527,0.207314728271667,558698,346627
1199.3135925945,0.207072009974783,567030,351993
1202.87565560525,0.207547339966991,575316,356746
1206.43344825751,0.20750085759427,583891,362102
1209.98697055127,0.207513432938561,592785,367607
1213.53622248654,0.207742734147044,601541,372840
1217.08120406333,0.207113823027353,609910,378575
1220.62191528162,0.207059446570489,618426,383909
1224.15835614142,0.206824753932724,627000,389442
1228.86696784128,0.206577566078128,637696,396311
1232.39344453127,0.206019805802613,645414,401623
1235.91565086277,0.205981868251322,652926,406333
1239.43358683578,0.20592224281764,659896,410727
1242.94725245029,0.205600475423797,666969,415437
1246.45664770632,0.205489804327894,673322,419501
1249.96177260386,0.205464192498066,679012,423071
1253.4626271429,0.205621546623759,684802,426524
1256.95921132345,0.205461868492202,690105,429985
1261.61468078432,0.205475673170796,699452,435795
1265.10130079506,0.205779242834189,706947,440157
1268.58365044731,0.205621056180129,713428,444354
1272.06172974107,0.205752806495929,719810,448193
1275.53553867634,0.205552618705196,725466,451923
1279.00507725312,0.205515331688858,730667,455202
1282.4703454714,0.20543183377195,736052,458645
1285.9313433312,0.205644859021321,740599,461252
1289.38807083251,0.20546664995495,744635,463956
1292.84052797532,0.205575849084472,748033,465956
1297.43716138587,0.205415936619906,753055,469257
1300.87965435887,0.205692137742585,756280,470967
1304.31787697338,0.205474055191772,758815,472783
1307.7518292294,0.205752263298301,761047,473870
1311.18151112693,0.205515993899699,762914,475291
1314.60692266597,0.205791764585579,764910,476232
1318.02806384652,0.206019557764332,766065,476701
1321.44493466858,0.205965431819168,766646,477122
1324.85753513215,0.206263054833595,767707,477455
1329.4010263037,0.206882916258161,768438,477228
1332.80366259745,0.207027724322304,768145,476887
1336.20202853272,0.207574360750032,767919,476147
1339.59612410949,0.207768977380184,767379,475599
1342.98594932777,0.208429287833177,766336,474231
1346.37150418756,0.208725560829578,764511,472779
1349.75278868886,0.20941281630313,762191,470599
1353.12980283167,0.21001102532983,759294,468165
1356.50254661599,0.210421485554051,757085,466362
1359.87102004182,0.210892234346061,754230,464100
1364.35567516305,0.21157796701135,751320,461580
1367.71418441907,0.212623371910153,749515,459364
1371.06842331659,0.213033346952134,746852,457300
1374.41839185563,0.213293488161286,741678,453860
1377.76409003617,0.213820303344961,735623,449609
1381.10551785823,0.214382187186513,729349,445198
1384.44267532179,0.215571462507754,723564,440459
1387.77556242686,0.216376062741207,718000,436263
1391.10417917344,0.217972917066896,713119,431707
1395.53569205567,0.219213561045133,707065,426821
1398.85434463244,0.22138684290245,703538,422572
1402.16872685072,0.223552406966912,700019,418367
1405.47883871051,0.225856695038227,696880,414287
1408.7846802118,0.228589363436992,694435,410244
1412.08625135461,0.231199713162359,691728,406196
1415.38355213892,0.2336973451628,688995,402271
1418.67658256475,0.236484636935246,687441,398796
1421.96534263208,0.239101258135024,685921,395524
1425.24983234092,0.241357604747936,684510,392665
1429.62250917284,0.243904719541235,682436,389186
1432.89703471187,0.245270211761839,681695,387543
1436.16728989241,0.246372308668042,680274,385755
1439.43327471445,0.247646689933637,679705,384303
1442.69498917801,0.248389203427903,678595,383020
1445.95243328308,0.248967041553594,677877,382106
1449.20560702965,0.249410725389228,676501,380941
1452.45451041774,0.24944849890332,674489,379775
1455.69914344733,0.250160455346238,672591,378086
1460.01867804025,0.250415538413532,669355,376046
1463.25334690003,0.2505496239078,667247,374746
1466.48374540132,0.250038665761673,663809,373254
1469.70987354412,0.250439537760666,660723,371176
1472.93173132843,0.250476945204185,657782,369492
1476.14931875425,0.250177483828819,654379,367834
1479.36263582158,0.249804712704,650547,365994
1482.57168253042,0.249809871323641,646662,363804
1485.77645888076,0.249962830655638,642841,361527
1488.97696487262,0.249476501311334,638857,359689
1493.23766341522,0.248981325162425,632427,356475
1496.42820523726,0.248853133676179,627214,353641
1499.61447670082,0.24836437142495,622487,351371
1502.79647780588,0.247949074453669,617354,348807
1505.97420855245,0.247101073676787,611292,346057
1509.14766894053,0.246583016511324,605736,343321
1512.31685897012,0.246093422725647,599666,340264
1515.48177864122,0.244997285589355,592682,337151
1518.64242795382,0.244520036742394,586584,334049
1522.84998425743,0.244245920900836,578066,329406
1526.00066940022,0.243583376826113,571371,326088
1529.14708418453,0.243274279775464,564092,322163
1532.28922861034,0.24282229903435,556444,318126
1535.42710267766,0.242781438058184,548607,313675
1538.5607063865,0.242207557296966,540461,309426
1541.69003973684,0.241554762094876,531972,305024
1544.81510272869,0.241218382478955,523373,300326
1547.93589536205,0.241281270364588,514701,295307
1551.05241763692,0.241087177810312,506147,290529
1555.2011378902,0.240913828351911,494730,284089
1558.30769599526,0.240535517479046,485817,279214
1561.40998374183,0.240342448140382,476980,274257
1564.5080011299,0.240684544509492,468084,268930
1567.60174815948,0.240309705568328,458385,263585
1570.69122483058,0.240045654991608,448942,258312
1573.77643114318,0.239807574074987,439415,252969
1576.85736709729,0.240077370399111,429866,247318
1579.93403269291,0.239760882690578,420358,242024
1584.0296107072,0.239568680857775,407549,234753
1587.09631213301,0.23910115473272,398051,229529
1590.15874320033,0.238441479981053,388879,224581
1593.21690390916,0.238787021835087,379127,218775
1596.27079425949,0.238417308024363,370263,213842
1599.32041425134,0.237945424552989,361142,208801
1602.36576388469,0.23730744035774,352151,203902
1605.40684315956,0.23674908986546,342995,198856
1608.44365207593,0.236386302562521,333709,193634
1611.47619063381,0.235537223405971,324617,188727
1615.51293259778,0.236058662850106,312985,181746
1618.53550698585,0.235400960351721,304232,176931
1621.55381101543,0.23555901854314,295491,171785
1624.56784468652,0.235589128748135,286869,166761
1627.57760799912,0.23532868952286,278309,161882
1630.58310095323,0.234678401432309,269536,157014
1633.58432354884,0.235488648328844,261447,152018
1636.58127578597,0.235950879934495,252907,146896
1639.5739576646,0.235657508191211,244741,142249
1643.55755738958,0.23597508583953,233837,135812
1646.5402750984,0.236221595586231,225990,131180
1649.51872244873,0.236678882574112,217776,126279
1652.49289944057,0.236250362127612,209767,121755
1655.46280607392,0.237609226917732,202146,116965
1658.42844234878,0.238638079365846,194421,112229
1661.38980826515,0.239273145565051,186437,107463
1664.34690382303,0.241052328426151,178386,102402
1667.29972902242,0.241445026479409,169941,97466
1670.24828386331,0.241798891844328,160639,92056
1674.17304753796,0.24378402354537,146108,83347
1677.11163820905,0.242890192139285,133623,76382
1680.04595852164,0.244455160170411,120100,68405
1682.97600847574,0.243048270675075,106217,60694
1685.90178807136,0.243602693398003,92550,52817
1688.82329730848,0.246853786443827,79422,44987
1691.74053618711,0.245930099553255,67575,38358
1694.65350470725,0.247900236087806,57441,32458
1697.56220286889,0.249765250751588,48583,27335
1701.43382430455,0.251309773196614,39078,21909
