***Scan Config Information***,,,,,,,***Reference Scan Information***,,,,,,,,
Scan Config Name:,herbario,,,,,,Scan Config Name:,Local New Reference,,,,,,,
Scan Config Type:,Slew,Num Section:,1,,,,Scan Config Type:,Slew,Num Section:,1,,,,,
Section Config Type:,Column,,,,,,Section Config Type:,Column,,,,,,,
Start Wavelength (nm):,900,,,,,,Start Wavelength (nm):,900,,,,,,,
End Wavelength (nm):,1700,,,,,,End Wavelength (nm):,1700,,,,,,,
Pattern Width (nm):,7.03,,,,,,Pattern Width (nm):,7.03,,,,,,,
Exposure (ms):,0.635,,,,,,Exposure (ms):,0.635,,,,,,,
Digital Resolution:,228,,,,,,Digital Resolution:,228,,,,,,,
Num Repeats:,20,,,,,,Num Repeats:,20,,,,,,,
PGA Gain:,64,(FixedPGA),,,,,PGA Gain:,64,(AutoPGA),,,,,,
System Temp (C):,41.75,,,,,,System Temp (C):,41.56,,,,,,,
Humidity (%):,19.29,,,,,,Humidity (%):,19.58,,,,,,,
Lamp Indicator:,1125,,,,,,Lamp Indicator:,1126,,,,,,,
Data Date-Time:,2023/11/10T18:13:07,,,,,,Data Date-Time:,2023/11/10T18:11:39,,,,,,,
Total Measurement Time in sec:,6.7868405,,,,,,,,,,,,,,
,,,,,,,,,,,,,,,
***General Information***,,,,,,,***Calibration Coefficients***,,,,,,,,
Model Name:,NIR-S-G1,,,,,,Shift Vector Coefficients:,-5.08535400046452,0.0413457073195706,-8.39863846568903E-05,,,,,
Serial Number:,B07R011,(95UB122GC0AB07R011),,,,,Pixel to Wavelength Coefficients:,1794.37724621797,-0.920219689099738,-0.000237242138379873,,,,,
GUI Version:,3.9.4,Revision:,526,,,,Versions (Cal/Ref/Cfg):,1,3,1,,,,,
TIVA Version:,2.4.7,,,,,,***Lamp Usage ***,,,,,,,,
DLPC Version:,2.3.1,,,,,,Total Time(hh:mm:ss):,1hr 31min 55sec ,,,,,,,
UUID:,DE:67:0C:88:67:2B:47:21,,,,,,***Device/Error/Activation Status***,,,,,,,,
Main Board Version:,D,,,,,,Device Status:,0x00000001,Activation Status:,Activated,,,,,
Detector Board Version:,B,,,,,,Error status:,0x00000000,Error Code:,0x00000000000000000000000000000000,,,,,
,,,,,,,,,Error Details:,Not found,,,,,
***Scan Data***,,,,,,,,,,,,,,,
Wavelength (nm),Absorbance (AU),Reference Signal (unitless),Sample Signal (unitless)
901.81429527209,0.187800651334887,86536,56156
905.716563509274,0.189058340212171,93825,60710
909.614561387966,0.188175440309897,101380,65732
913.508288908168,0.188938539541181,110348,71421
917.397746069878,0.188202541304335,121373,78690
921.282932873098,0.188815689838957,134879,87323
925.163849317827,0.188140201347172,150864,97824
929.040495404065,0.186412629281037,169231,110171
932.912871131812,0.187163971640193,188809,122704
938.069395988934,0.187497815376519,212729,138143
941.931807546869,0.187978633123786,229070,148590
945.789948746314,0.186911690897533,243222,158158
949.643819587268,0.186711659943466,255756,166385
953.493420069731,0.187226381464234,267563,173860
957.338750193702,0.187016063690615,278767,181228
961.179809959184,0.187205740391697,289801,188319
965.016599366174,0.186816283812003,299678,194912
968.849118414673,0.187741708281976,309998,201195
973.952501032798,0.188123045447193,322885,209375
977.775055911486,0.187570120981537,332684,216004
981.593340431682,0.187751832957305,341119,221388
985.407354593388,0.18855227196274,349357,226317
989.217098396603,0.188016914244563,356694,231355
993.022571841327,0.187427896301342,362651,235538
996.823774927561,0.188170376164042,368338,238823
1000.6207076553,0.187826597688967,373690,242485
1004.41337002455,0.187878288875251,378497,245575
1008.20176203532,0.187376236403782,381736,247963
1013.24630860312,0.187898788487513,385380,250029
1017.02473644407,0.187144987562005,387669,251951
1020.79889392653,0.187429591987977,389509,252981
1024.5687810505,0.187417378414015,390448,253598
1028.33439781597,0.18700305146886,391217,254340
1032.09574422296,0.186817276256322,391042,254335
1035.85282027145,0.186979714072556,391419,254485
1039.60562596146,0.186979509812263,391608,254608
1043.35416129297,0.187053803310063,391635,254582
1048.34556562178,0.18691973392935,391022,254262
1052.08413678348,0.186771478702752,390784,254194
1055.81843758669,0.186806170289578,390437,253948
1059.54846803141,0.186741768585399,390416,253972
1063.27422811764,0.186919367521514,390365,253835
1066.99571784538,0.185887157870067,390187,254323
1070.71293721462,0.186449480611268,390903,254460
1074.42588622538,0.186724170206322,392274,255191
1078.13456487764,0.18652101744007,393100,255848
1081.83897317142,0.186344281624777,394909,257130
1086.77154144991,0.186218827738402,396880,258488
1090.46598557387,0.185602265260713,399112,260311
1094.15615933934,0.186386970567628,401849,261623
1097.84206274632,0.186390201517075,404242,263179
1101.52369579481,0.18670026701436,407319,264993
1105.20105848481,0.186299012315429,410458,267282
1108.87415081632,0.186019365730944,413765,269609
1112.54297278934,0.186187813478031,417145,271706
1116.20752440387,0.186784866962378,421075,273889
1121.08695044336,0.187025080931328,426498,277263
1124.74153788807,0.187432576710546,430880,279849
1128.3918549743,0.187648144065575,435438,282669
1132.03790170203,0.187779694590201,440205,285677
1135.67967807127,0.188024484447102,444929,288580
1139.31718408202,0.188671487201162,449976,291419
1142.95041973428,0.189022331551428,455294,294625
1146.57938502805,0.189587544541347,460481,297594
1150.20407996333,0.189442837610648,465791,301126
1153.82450454012,0.190403394613687,471608,304213
1158.6450945293,0.190946698513443,479652,309015
1162.25555493627,0.191185271509164,485359,312520
1165.86174498476,0.191836988354885,492087,316377
1169.46366467475,0.192472535212151,498909,320294
1173.06131400625,0.192508220330953,505622,324577
1176.65469297927,0.192758229668309,512589,328860
1180.24380159379,0.193419107933726,519720,332928
1183.82863984982,0.193660966063835,527891,337974
1187.40920774736,0.194249709303722,536016,342711
1192.17665549754,0.194057494629086,546061,349288
1195.74725922527,0.194422822196682,554153,354166
1199.3135925945,0.194967090009087,563032,359390
1202.87565560525,0.194973410757903,571356,364698
1206.43344825751,0.194663192058448,579153,369939
1209.98697055127,0.19522790467454,588616,375495
1213.53622248654,0.19466433117327,597069,381382
1217.08120406333,0.19495176675907,605587,386567
1220.62191528162,0.194407792162417,613971,392410
1224.15835614142,0.194583252681378,622241,397535
1228.86696784128,0.194079902411147,632827,404767
1232.39344453127,0.193655879288988,640486,410066
1235.91565086277,0.193984280364904,648242,414718
1239.43358683578,0.193613700699649,654995,419396
1242.94725245029,0.193660129058424,661925,423788
1246.45664770632,0.193520692178844,668258,427980
1249.96177260386,0.193284305514937,673862,431804
1253.4626271429,0.193220392716515,679210,435295
1256.95921132345,0.193458401369896,685084,438819
1261.61468078432,0.193572471522657,694301,444606
1265.10130079506,0.193444127352833,701427,449302
1268.58365044731,0.193620395276113,707823,453215
1272.06172974107,0.193659151690571,714415,457395
1275.53553867634,0.193455488098525,719947,461153
1279.00507725312,0.193486380553751,725074,464404
1282.4703454714,0.193542128897165,730370,467736
1285.9313433312,0.193631076142522,734774,470460
1289.38807083251,0.193577748008515,738883,473149
1292.84052797532,0.193548310533851,742198,475304
1297.43716138587,0.193604738854694,747217,478456
1300.87965435887,0.193692145291213,750001,480142
1304.31787697338,0.193876985553586,752980,481844
1307.7518292294,0.193584016462902,754949,483430
1311.18151112693,0.194124635621022,757245,484297
1314.60692266597,0.193931189286093,758752,485477
1318.02806384652,0.194366049581684,759764,485638
1321.44493466858,0.194788656889031,761069,485999
1324.85753513215,0.195280551912079,761839,485940
1329.4010263037,0.19588634382119,762287,485548
1332.80366259745,0.19655613077219,762333,484829
1336.20202853272,0.197436480719537,762131,483719
1339.59612410949,0.197967241778169,761394,482661
1342.98594932777,0.199076751809753,760555,480899
1346.37150418756,0.199738326694549,758545,478898
1349.75278868886,0.201049311033485,757011,476489
1353.12980283167,0.202331342527489,754303,473385
1356.50254661599,0.203208304250872,751967,470967
1359.87102004182,0.204374223014691,749096,467911
1364.35567516305,0.205426115628967,746196,464972
1367.71418441907,0.206419329886103,744406,462797
1371.06842331659,0.207348935299559,741370,459924
1374.41839185563,0.208556329238123,736805,455823
1377.76409003617,0.209886805405985,730735,450685
1381.10551785823,0.211230416594567,724376,445383
1384.44267532179,0.212876193749369,718516,440109
1387.77556242686,0.215851211594371,713140,433834
1391.10417917344,0.218662936811547,708176,428034
1395.53569205567,0.222892209944447,702150,420279
1398.85434463244,0.227645971586251,698497,413541
1402.16872685072,0.232711496345429,694716,406533
1405.47883871051,0.238285260887993,692170,399878
1408.7846802118,0.244559654984315,689493,392618
1412.08625135461,0.25028625368994,686525,385807
1415.38355213892,0.256674166358586,684120,378842
1418.67658256475,0.262678996899114,682280,372635
1421.96534263208,0.268072031504452,680726,367198
1425.24983234092,0.272614464102043,679251,362590
1429.62250917284,0.277747587320901,677413,357360
1432.89703471187,0.281189401086598,676639,354134
1436.16728989241,0.284015705795659,675195,351086
1439.43327471445,0.286234672333868,674488,348931
1442.69498917801,0.287614972187225,673164,347141
1445.95243328308,0.288772945043499,672735,345996
1449.20560702965,0.289238470934423,671549,345016
1452.45451041774,0.289641970096605,669321,343552
1455.69914344733,0.289522982674235,667225,342570
1460.01867804025,0.289191858460675,664309,341333
1463.25334690003,0.288629377023307,662005,340590
1466.48374540132,0.287889329139721,659149,339699
1469.70987354412,0.28697593874586,655884,338728
1472.93173132843,0.285857894793483,652782,337995
1476.14931875425,0.284563112762171,649512,337306
1479.36263582158,0.283277341307827,645768,336356
1482.57168253042,0.281759588060358,641799,335459
1485.77645888076,0.28092982592473,638103,334165
1488.97696487262,0.279392410398072,633814,333096
1493.23766341522,0.277211492955705,627413,331392
1496.42820523726,0.276220821379049,622895,329757
1499.61447670082,0.275033137904547,617901,328009
1502.79647780588,0.27341692576115,612312,326254
1505.97420855245,0.271984185364002,606801,324386
1509.14766894053,0.271079191151133,601502,322224
1512.31685897012,0.269474952939514,595094,319971
1515.48177864122,0.268368343841135,588530,317249
1518.64242795382,0.267364963610799,582567,314761
1522.84998425743,0.265943191328564,573793,311037
1526.00066940022,0.264907757747792,567176,308184
1529.14708418453,0.264474312786952,560008,304593
1532.28922861034,0.263438491746327,552203,301065
1535.42710267766,0.262608796395602,544555,297463
1538.5607063865,0.262047075251048,536633,293515
1541.69003973684,0.261447531833024,528449,289438
1544.81510272869,0.26109446538172,520062,285076
1547.93589536205,0.260384565148495,511197,280675
1551.05241763692,0.259058650280733,502648,276825
1555.2011378902,0.258900130293872,491024,270522
1558.30769599526,0.258640021903713,482625,266054
1561.40998374183,0.258467391416965,473811,261299
1564.5080011299,0.258000351794817,464879,256649
1567.60174815948,0.257890145371217,455301,251425
1570.69122483058,0.257376143376199,446142,246659
1573.77643114318,0.256569844438463,436506,241780
1576.85736709729,0.256420244392006,427238,236728
1579.93403269291,0.255994480031416,417332,231466
1584.0296107072,0.255210525672492,404980,225021
1587.09631213301,0.254734948703323,395467,219976
1590.15874320033,0.253768926245991,386319,215366
1593.21690390916,0.253189863999377,376661,210262
1596.27079425949,0.252156066400343,367609,205698
1599.32041425134,0.252008735598082,358909,200898
1602.36576388469,0.251137740807534,349860,196226
1605.40684315956,0.250572588499761,340639,191303
1608.44365207593,0.249897707833092,331491,186455
1611.47619063381,0.249116688024367,322755,181868
1615.51293259778,0.248277659149687,310828,175486
1618.53550698585,0.248144283239833,302258,170700
1621.55381101543,0.248132575247734,293602,165816
1624.56784468652,0.247426802840589,284845,161132
1627.57760799912,0.246785714250661,276501,156643
1630.58310095323,0.247216160421019,268165,151770
1633.58432354884,0.24662223166375,259523,147080
1636.58127578597,0.246849183406461,251257,142321
1639.5739576646,0.247068159395757,243105,137634
1643.55755738958,0.247605680451648,232192,131293
1646.5402750984,0.249277439741955,224218,126297
1649.51872244873,0.249472308445618,216422,121851
1652.49289944057,0.25193888609794,208527,116741
1655.46280607392,0.253167405928991,200867,112135
1658.42844234878,0.255838312585108,193399,107304
1661.38980826515,0.255242045972885,185351,102980
1664.34690382303,0.257182638968308,177597,98232
1667.29972902242,0.258881617724392,169336,93297
1670.24828386331,0.257106029999521,159983,88505
1674.17304753796,0.257896648929455,145914,80575
1677.11163820905,0.257324660931816,133726,73942
1680.04595852164,0.257622826203727,120507,66587
1682.97600847574,0.258614445369087,107024,59002
1685.90178807136,0.25911222740985,93180,51311
1688.82329730848,0.260053972637139,80297,44121
1691.74053618711,0.258568750139153,68270,37641
1694.65350470725,0.26106061409208,58070,31834
1697.56220286889,0.261322423279946,49227,26970
1701.43382430455,0.268589573145071,39532,21299
