***Scan Config Information***,,,,,,,***Reference Scan Information***,,,,,,,,
Scan Config Name:,herbario,,,,,,Scan Config Name:,Local New Reference,,,,,,,
Scan Config Type:,Slew,Num Section:,1,,,,Scan Config Type:,Slew,Num Section:,1,,,,,
Section Config Type:,Column,,,,,,Section Config Type:,Column,,,,,,,
Start Wavelength (nm):,900,,,,,,Start Wavelength (nm):,900,,,,,,,
End Wavelength (nm):,1700,,,,,,End Wavelength (nm):,1700,,,,,,,
Pattern Width (nm):,7.03,,,,,,Pattern Width (nm):,7.03,,,,,,,
Exposure (ms):,0.635,,,,,,Exposure (ms):,0.635,,,,,,,
Digital Resolution:,228,,,,,,Digital Resolution:,228,,,,,,,
Num Repeats:,20,,,,,,Num Repeats:,20,,,,,,,
PGA Gain:,64,(FixedPGA),,,,,PGA Gain:,64,(AutoPGA),,,,,,
System Temp (C):,42.14,,,,,,System Temp (C):,42.08,,,,,,,
Humidity (%):,22,,,,,,Humidity (%):,22.05,,,,,,,
Lamp Indicator:,1128,,,,,,Lamp Indicator:,1133,,,,,,,
Data Date-Time:,2023/11/10T15:15:25,,,,,,Data Date-Time:,2023/11/10T15:11:53,,,,,,,
Total Measurement Time in sec:,6.7154562,,,,,,,,,,,,,,
,,,,,,,,,,,,,,,
***General Information***,,,,,,,***Calibration Coefficients***,,,,,,,,
Model Name:,NIR-S-G1,,,,,,Shift Vector Coefficients:,-5.08535400046452,0.0413457073195706,-8.39863846568903E-05,,,,,
Serial Number:,B07R011,(95UB122GC0AB07R011),,,,,Pixel to Wavelength Coefficients:,1794.37724621797,-0.920219689099738,-0.000237242138379873,,,,,
GUI Version:,3.9.4,Revision:,526,,,,Versions (Cal/Ref/Cfg):,1,3,1,,,,,
TIVA Version:,2.4.7,,,,,,***Lamp Usage ***,,,,,,,,
DLPC Version:,2.3.1,,,,,,Total Time(hh:mm:ss):,1hr 9min 1sec ,,,,,,,
UUID:,DE:67:0C:88:67:2B:47:21,,,,,,***Device/Error/Activation Status***,,,,,,,,
Main Board Version:,D,,,,,,Device Status:,0x00000001,Activation Status:,Activated,,,,,
Detector Board Version:,B,,,,,,Error status:,0x00000000,Error Code:,0x00000000000000000000000000000000,,,,,
,,,,,,,,,Error Details:,Not found,,,,,
***Scan Data***,,,,,,,,,,,,,,,
Wavelength (nm),Absorbance (AU),Reference Signal (unitless),Sample Signal (unitless)
901.81429527209,0.204947505441892,87307,54463
905.716563509274,0.20070747010226,94466,59507
909.614561387966,0.198825640338093,102517,64859
913.508288908168,0.200079254810891,111516,70349
917.397746069878,0.196167851534649,122311,77857
921.282932873098,0.195776216687677,136107,86717
925.163849317827,0.194626477782092,152342,97318
929.040495404065,0.192487695195129,170646,109549
932.912871131812,0.190881350309749,190027,122443
938.069395988934,0.189638945640631,214452,138577
941.931807546869,0.188611382977625,230724,149445
945.789948746314,0.187026858545094,244734,159099
949.643819587268,0.186343088430685,257852,167891
953.493420069731,0.185611220232499,269463,175747
957.338750193702,0.184339516758835,280815,183688
961.179809959184,0.183669467189059,291766,191146
965.016599366174,0.182820533015843,302238,198394
968.849118414673,0.181773759942332,312442,205587
973.952501032798,0.180593198861777,325477,214747
977.775055911486,0.180305576999862,335408,221446
981.593340431682,0.179190998566106,343785,227560
985.407354593388,0.178326446525168,351905,233399
989.217098396603,0.177561740508103,359448,238822
993.022571841327,0.177037149992523,365872,243384
996.823774927561,0.175917015723991,371302,247634
1000.6207076553,0.175433002699894,376770,251561
1004.41337002455,0.174632525853843,381334,255078
1008.20176203532,0.174264896939956,385007,257753
1013.24630860312,0.173415692370232,388447,260565
1017.02473644407,0.172761145013462,390979,262659
1020.79889392653,0.17191870375558,392533,264215
1024.5687810505,0.171110914810505,393500,265359
1028.33439781597,0.170467764891243,394237,266250
1032.09574422296,0.170011648588819,394190,266498
1035.85282027145,0.169579941046506,394583,267029
1039.60562596146,0.169198391164294,394861,267452
1043.35416129297,0.169113826282678,394452,267227
1048.34556562178,0.168392831938525,394144,267462
1052.08413678348,0.167668363812896,393924,267759
1055.81843758669,0.167363840183398,393642,267755
1059.54846803141,0.166978276004942,393372,267809
1063.27422811764,0.166584635366459,393337,268028
1066.99571784538,0.16580138227212,393327,268505
1070.71293721462,0.165897776248076,394059,268945
1074.42588622538,0.164969466390986,394956,270134
1078.13456487764,0.164850715679718,396279,271113
1081.83897317142,0.164180264328174,397851,272609
1086.77154144991,0.164135535635156,400301,274316
1090.46598557387,0.164249514957346,402724,275904
1094.15615933934,0.163368758726015,405107,278100
1097.84206274632,0.163098693756836,407429,279868
1101.52369579481,0.162791730954649,410570,282225
1105.20105848481,0.162648373151003,413663,284445
1108.87415081632,0.161738924413113,417118,287422
1112.54297278934,0.161649459282007,420687,289941
1116.20752440387,0.161424731728932,424527,292739
1121.08695044336,0.161443906049653,430019,296513
1124.74153788807,0.161138099907888,434364,299720
1128.3918549743,0.161082532826473,439141,303055
1132.03790170203,0.161631814031928,443958,305992
1135.67967807127,0.161508451170669,448749,309382
1139.31718408202,0.16167042219287,453667,312656
1142.95041973428,0.162083495486681,459047,316063
1146.57938502805,0.162092166410332,464449,319776
1150.20407996333,0.162895166735117,469767,322840
1153.82450454012,0.162763405631627,475657,326987
1158.6450945293,0.163596275859497,483767,331925
1162.25555493627,0.16359766940373,489441,335817
1165.86174498476,0.164437217820467,496108,339734
1169.46366467475,0.164901568501007,503065,344130
1173.06131400625,0.165514933015718,509901,348314
1176.65469297927,0.166129157171796,517202,352802
1180.24380159379,0.166201366071566,524191,357510
1183.82863984982,0.166689607111463,532258,362604
1187.40920774736,0.167650897531614,540415,367347
1192.17665549754,0.167599023553965,550831,374472
1195.74725922527,0.168260539371672,559072,379496
1199.3135925945,0.168413130340728,567508,385087
1202.87565560525,0.168461097568451,576044,390836
1206.43344825751,0.168172899345621,584486,396827
1209.98697055127,0.167819561401813,593562,403317
1213.53622248654,0.167105651141617,602086,409782
1217.08120406333,0.16651450598353,610866,416324
1220.62191528162,0.165973135166317,619311,422606
1224.15835614142,0.164815786324096,627407,429273
1228.86696784128,0.16402664513264,638320,437534
1232.39344453127,0.163568112915963,646223,443419
1235.91565086277,0.162941880858544,653696,449194
1239.43358683578,0.162817037848307,660874,454257
1242.94725245029,0.162280107399794,667375,459293
1246.45664770632,0.161878163464534,674276,464472
1249.96177260386,0.161618755905532,679816,468568
1253.4626271429,0.161255246608614,685311,472751
1256.95921132345,0.161129247945366,690667,476584
1261.61468078432,0.160743651213876,700133,483545
1265.10130079506,0.160583956623541,707292,488669
1268.58365044731,0.160556396537429,714019,493348
1272.06172974107,0.160172717797025,720419,498210
1275.53553867634,0.160429406337007,726589,502180
1279.00507725312,0.159942759551588,731458,506112
1282.4703454714,0.159834251172057,736552,509764
1285.9313433312,0.159672991468264,741523,513395
1289.38807083251,0.15939716724259,745153,516236
1292.84052797532,0.159336398086471,748843,518865
1297.43716138587,0.159251058427201,753713,522342
1300.87965435887,0.158988859730605,756634,524683
1304.31787697338,0.159067135270461,759469,526554
1307.7518292294,0.159389877978845,761962,527890
1311.18151112693,0.159407350262252,763784,529131
1314.60692266597,0.159354435482861,765433,530338
1318.02806384652,0.15947896482454,766653,531031
1321.44493466858,0.159806595955583,767587,531277
1324.85753513215,0.15974932621485,768406,531914
1329.4010263037,0.160171558521185,768964,531783
1332.80366259745,0.160702142938711,768685,530941
1336.20202853272,0.16106665238016,768306,530234
1339.59612410949,0.162169872025134,768132,528769
1342.98594932777,0.162931236645846,767198,527201
1346.37150418756,0.163535758208909,764982,524947
1349.75278868886,0.164670207906506,763488,522555
1353.12980283167,0.165104803703341,760599,520057
1356.50254661599,0.166205868298916,758112,517044
1359.87102004182,0.167030687931215,755127,514031
1364.35567516305,0.168227419882875,752295,510694
1367.71418441907,0.169220470371319,750515,508322
1371.06842331659,0.170140105954125,747281,505061
1374.41839185563,0.170846520162316,742448,500979
1377.76409003617,0.172031597447155,736354,495513
1381.10551785823,0.173555149076876,730361,489759
1384.44267532179,0.175253834183672,724573,483981
1387.77556242686,0.177315536183311,718997,477982
1391.10417917344,0.17916780591681,713701,472442
1395.53569205567,0.182563333512759,708085,465074
1398.85434463244,0.185857333586577,704210,459034
1402.16872685072,0.189556698162716,700550,452775
1405.47883871051,0.193829751806736,697725,446534
1408.7846802118,0.198512570118875,694915,439966
1412.08625135461,0.202965114096201,692224,433792
1415.38355213892,0.207481003306994,689880,427851
1418.67658256475,0.211788716978985,687805,422354
1421.96534263208,0.21554254755403,686448,417893
1425.24983234092,0.218930295084863,684897,413709
1429.62250917284,0.222629425769334,683015,409073
1432.89703471187,0.224560632003641,682101,406713
1436.16728989241,0.226518466884455,681015,404239
1439.43327471445,0.227417864253195,680114,402869
1442.69498917801,0.228012788790596,679109,401723
1445.95243328308,0.228378291163165,678400,400966
1449.20560702965,0.228996425300093,677145,399655
1452.45451041774,0.229001423549663,675084,398434
1455.69914344733,0.229293874211809,673004,396939
1460.01867804025,0.22893920525252,670132,395568
1463.25334690003,0.22881631409199,667739,394267
1466.48374540132,0.228439371731352,664657,392788
1469.70987354412,0.227705455250657,661190,391400
1472.93173132843,0.227751518255894,658312,389655
1476.14931875425,0.226728557938978,654985,388600
1479.36263582158,0.226063981735513,651311,387012
1482.57168253042,0.225674581413048,647161,384891
1485.77645888076,0.225077734860427,643317,383131
1488.97696487262,0.224773997093095,639456,381098
1493.23766341522,0.223564800922504,632931,378261
1496.42820523726,0.222994159975659,627959,375783
1499.61447670082,0.222191395247836,622998,373504
1502.79647780588,0.221170502046588,617425,371034
1505.97420855245,0.220316790131767,612107,368562
1509.14766894053,0.219593771696301,606249,365643
1512.31685897012,0.218260638516551,600037,363009
1515.48177864122,0.217312976777969,593532,359858
1518.64242795382,0.216247182614861,587189,356887
1522.84998425743,0.215726836034589,578330,351924
1526.00066940022,0.214764262621161,571837,348745
1529.14708418453,0.214176932392735,564416,344685
1532.28922861034,0.213156870542707,556737,340795
1535.42710267766,0.212845605570677,548992,336295
1538.5607063865,0.21211252021834,540998,331958
1541.69003973684,0.211336183927684,532799,327512
1544.81510272869,0.211133040336624,524257,322412
1547.93589536205,0.210165262847407,515476,317719
1551.05241763692,0.209792750780947,506924,312716
1555.2011378902,0.208720402795749,494830,306010
1558.30769599526,0.208682231761697,486508,300890
1561.40998374183,0.20809301021895,477636,295804
1564.5080011299,0.207556958563506,468393,290438
1567.60174815948,0.207285936686675,459043,284818
1570.69122483058,0.207096950418357,449696,279140
1573.77643114318,0.20652396461703,440066,273523
1576.85736709729,0.205804008373063,430376,267944
1579.93403269291,0.205803513471743,420939,262069
1584.0296107072,0.205156693035485,408008,254397
1587.09631213301,0.204373941702905,398569,248960
1590.15874320033,0.203726502513069,389439,243620
1593.21690390916,0.202485932210235,379507,238086
1596.27079425949,0.202326854415627,370864,232749
1599.32041425134,0.20133480905608,361751,227549
1602.36576388469,0.20068096860746,352727,222207
1605.40684315956,0.199897612732411,343283,216648
1608.44365207593,0.198513359526348,334200,211589
1611.47619063381,0.198223296195144,325335,206114
1615.51293259778,0.197063055749816,313309,199026
1618.53550698585,0.196966566694867,304665,193578
1621.55381101543,0.196886493958033,296025,188123
1624.56784468652,0.196409834049901,287118,182663
1627.57760799912,0.196001377407906,278946,177631
1630.58310095323,0.19572253119749,269955,172016
1633.58432354884,0.195875615369057,261794,166757
1636.58127578597,0.195705746299199,253412,161481
1639.5739576646,0.197009258644686,245205,155783
1643.55755738958,0.195525082379118,234235,149323
1646.5402750984,0.195590650844167,226131,144135
1649.51872244873,0.196858212731878,218226,138691
1652.49289944057,0.196889611494733,210056,133489
1655.46280607392,0.198495349731831,202479,128199
1658.42844234878,0.199473058683381,194973,123169
1661.38980826515,0.20152648686263,187124,117653
1664.34690382303,0.202427314856188,179252,112470
1667.29972902242,0.205142672373886,170829,106517
1670.24828386331,0.205089174046561,161496,100710
1674.17304753796,0.20657615488913,147174,91465
1677.11163820905,0.208706777404041,135143,83577
1680.04595852164,0.211146769488735,121972,75009
1682.97600847574,0.212680624499638,108102,66245
1685.90178807136,0.212362789189215,94645,58041
1688.82329730848,0.216662606713716,81300,49366
1691.74053618711,0.218298737420936,69650,42133
1694.65350470725,0.219372961850583,59122,35676
1697.56220286889,0.22117706789998,49748,29895
1701.43382430455,0.222028663650954,40240,24134
