***Scan Config Information***,,,,,,,***Reference Scan Information***,,,,,,,,
Scan Config Name:,herbario,,,,,,Scan Config Name:,Local New Reference,,,,,,,
Scan Config Type:,Slew,Num Section:,1,,,,Scan Config Type:,Slew,Num Section:,1,,,,,
Section Config Type:,Column,,,,,,Section Config Type:,Column,,,,,,,
Start Wavelength (nm):,900,,,,,,Start Wavelength (nm):,900,,,,,,,
End Wavelength (nm):,1700,,,,,,End Wavelength (nm):,1700,,,,,,,
Pattern Width (nm):,7.03,,,,,,Pattern Width (nm):,7.03,,,,,,,
Exposure (ms):,0.635,,,,,,Exposure (ms):,0.635,,,,,,,
Digital Resolution:,228,,,,,,Digital Resolution:,228,,,,,,,
Num Repeats:,20,,,,,,Num Repeats:,20,,,,,,,
PGA Gain:,64,(FixedPGA),,,,,PGA Gain:,64,(AutoPGA),,,,,,
System Temp (C):,41.31,,,,,,System Temp (C):,41.3,,,,,,,
Humidity (%):,18.18,,,,,,Humidity (%):,18.28,,,,,,,
Lamp Indicator:,1121,,,,,,Lamp Indicator:,1127,,,,,,,
Data Date-Time:,2023/11/10T18:54:21,,,,,,Data Date-Time:,2023/11/10T18:53:51,,,,,,,
Total Measurement Time in sec:,6.74693,,,,,,,,,,,,,,
,,,,,,,,,,,,,,,
***General Information***,,,,,,,***Calibration Coefficients***,,,,,,,,
Model Name:,NIR-S-G1,,,,,,Shift Vector Coefficients:,-5.08535400046452,0.0413457073195706,-8.39863846568903E-05,,,,,
Serial Number:,B07R011,(95UB122GC0AB07R011),,,,,Pixel to Wavelength Coefficients:,1794.37724621797,-0.920219689099738,-0.000237242138379873,,,,,
GUI Version:,3.9.4,Revision:,526,,,,Versions (Cal/Ref/Cfg):,1,3,1,,,,,
TIVA Version:,2.4.7,,,,,,***Lamp Usage ***,,,,,,,,
DLPC Version:,2.3.1,,,,,,Total Time(hh:mm:ss):,1hr 38min 28sec ,,,,,,,
UUID:,DE:67:0C:88:67:2B:47:21,,,,,,***Device/Error/Activation Status***,,,,,,,,
Main Board Version:,D,,,,,,Device Status:,0x00000001,Activation Status:,Activated,,,,,
Detector Board Version:,B,,,,,,Error status:,0x00000000,Error Code:,0x00000000000000000000000000000000,,,,,
,,,,,,,,,Error Details:,Not found,,,,,
***Scan Data***,,,,,,,,,,,,,,,
Wavelength (nm),Absorbance (AU),Reference Signal (unitless),Sample Signal (unitless)
901.81429527209,0.172830161632645,85310,57302
905.716563509274,0.170118432593125,92613,62597
909.614561387966,0.170882102768185,100317,67685
913.508288908168,0.171457965462019,109224,73597
917.397746069878,0.170202009216389,119865,81001
921.282932873098,0.1695089867903,133024,90037
925.163849317827,0.169161708322533,148876,100847
929.040495404065,0.169690018895064,167592,113387
932.912871131812,0.1690316370708,186689,126499
938.069395988934,0.168166420488377,210262,142756
941.931807546869,0.168316436451738,226231,153545
945.789948746314,0.16835659805043,240355,163116
949.643819587268,0.167742963780159,252826,171822
953.493420069731,0.167225183798445,264222,179781
957.338750193702,0.16723863177573,275165,187221
961.179809959184,0.167848941405196,286458,194631
965.016599366174,0.166888372947796,296243,201725
968.849118414673,0.167151666685915,306287,208438
973.952501032798,0.16756070904508,319260,217062
977.775055911486,0.167375055823737,328671,223556
981.593340431682,0.167424887307312,337253,229367
985.407354593388,0.167317787696819,345174,234812
989.217098396603,0.166673206194269,352283,240004
993.022571841327,0.166915572554428,358739,244266
996.823774927561,0.166297772833982,363953,248169
1000.6207076553,0.1661624423975,369509,252036
1004.41337002455,0.165928766984396,374093,255300
1008.20176203532,0.165628207731145,377615,257882
1013.24630860312,0.165452435826524,381180,260422
1017.02473644407,0.165361651465767,383692,262193
1020.79889392653,0.164691571386943,385035,263517
1024.5687810505,0.164677539234929,386602,264598
1028.33439781597,0.164017823817589,386997,265271
1032.09574422296,0.163922122148608,387043,265361
1035.85282027145,0.163606518376161,387562,265910
1039.60562596146,0.163485903491942,387654,266047
1043.35416129297,0.163150816333385,387620,266229
1048.34556562178,0.163182558347318,387245,265952
1052.08413678348,0.162295362913498,386911,266266
1055.81843758669,0.162742608436821,386802,265917
1059.54846803141,0.161959393539455,386500,266189
1063.27422811764,0.162270022266402,386515,266009
1066.99571784538,0.16202731593321,386559,266188
1070.71293721462,0.161949936726431,387325,266763
1074.42588622538,0.161980338280586,388158,267318
1078.13456487764,0.162054192978325,389640,268293
1081.83897317142,0.162237136231891,391321,269337
1086.77154144991,0.162225207474737,393414,270785
1090.46598557387,0.162431086631219,395730,272250
1094.15615933934,0.162319831000358,398147,273983
1097.84206274632,0.162243229578544,400570,275699
1101.52369579481,0.16277151087254,403644,277477
1105.20105848481,0.162705944388504,406764,279664
1108.87415081632,0.162869490064681,410450,282092
1112.54297278934,0.163119225232174,413608,284099
1116.20752440387,0.16329836099208,417513,286663
1121.08695044336,0.163520357397766,422799,290144
1124.74153788807,0.164330351850736,427260,292659
1128.3918549743,0.164827340738315,431963,295542
1132.03790170203,0.164748203292804,436638,298795
1135.67967807127,0.165828271358399,441332,301257
1139.31718408202,0.165581280675181,446371,304870
1142.95041973428,0.166091262480301,451724,308164
1146.57938502805,0.166236975266155,456716,311465
1150.20407996333,0.166913066556861,461948,314543
1153.82450454012,0.167355962079683,467850,318237
1158.6450945293,0.16799203758361,475613,323044
1162.25555493627,0.168153693926664,481378,326838
1165.86174498476,0.16870927293013,487927,330861
1169.46366467475,0.1694022376225,494644,334881
1173.06131400625,0.16930041595885,501479,339588
1176.65469297927,0.170056047145676,508697,343877
1180.24380159379,0.170693359558172,516044,348332
1183.82863984982,0.170645194243432,523497,353402
1187.40920774736,0.170802906044213,531412,358615
1192.17665549754,0.171293934908487,541932,365301
1195.74725922527,0.171550550676464,550179,370641
1199.3135925945,0.170994064341653,558451,376696
1202.87565560525,0.171497128707941,566739,381844
1206.43344825751,0.171319629626112,574918,387513
1209.98697055127,0.171205526104439,583957,393709
1213.53622248654,0.170814557925328,592474,399811
1217.08120406333,0.170297843386255,600594,405773
1220.62191528162,0.170365495322289,609207,411528
1224.15835614142,0.169940283259555,617397,417469
1228.86696784128,0.169639789665136,628193,425063
1232.39344453127,0.169444026682845,635943,430501
1235.91565086277,0.168762104791442,643097,436028
1239.43358683578,0.168711725262582,650340,440990
1242.94725245029,0.168182428078437,656724,445862
1246.45664770632,0.168049820713009,663587,450659
1249.96177260386,0.167700635918042,668855,454602
1253.4626271429,0.167665107109655,674404,458411
1256.95921132345,0.167346209734578,680004,462557
1261.61468078432,0.167482673956592,689269,468712
1265.10130079506,0.167213292872571,696303,473789
1268.58365044731,0.166963058358726,702795,478482
1272.06172974107,0.167139602751518,709311,482722
1275.53553867634,0.167058058259131,715022,486700
1279.00507725312,0.16665288421576,719987,490537
1282.4703454714,0.166502411966423,725363,494371
1285.9313433312,0.166218478883355,729735,497676
1289.38807083251,0.166143096976216,733486,500321
1292.84052797532,0.166176845283446,737289,502876
1297.43716138587,0.166029312155158,742183,506386
1300.87965435887,0.166108395734031,745228,508371
1304.31787697338,0.166059596943777,747809,510189
1307.7518292294,0.16615116497081,750264,511756
1311.18151112693,0.166158337341939,752260,513109
1314.60692266597,0.166301929241452,753924,514074
1318.02806384652,0.166629030979996,755289,514617
1321.44493466858,0.16662677027163,755969,515083
1324.85753513215,0.167098136658092,756859,515130
1329.4010263037,0.167804496438991,757442,514689
1332.80366259745,0.168569185305534,757509,513829
1336.20202853272,0.168782996791138,756823,513111
1339.59612410949,0.169720480691327,756494,511782
1342.98594932777,0.170707253254072,755674,510067
1346.37150418756,0.171958606422756,753880,507392
1349.75278868886,0.17296185855233,752240,505120
1353.12980283167,0.174197846240358,749669,501963
1356.50254661599,0.175003994950461,747610,499656
1359.87102004182,0.176071137661664,744621,496437
1364.35567516305,0.177766022530933,742038,492788
1367.71418441907,0.17864622810465,739972,490421
1371.06842331659,0.179426977993947,737059,487613
1374.41839185563,0.180033635812881,732578,483972
1377.76409003617,0.180983518166063,726412,478850
1381.10551785823,0.181947480952497,720587,473957
1384.44267532179,0.183008171196927,714529,468826
1387.77556242686,0.1846480386986,708974,463428
1391.10417917344,0.186771788049855,703848,457833
1395.53569205567,0.19041149676287,698594,450623
1398.85434463244,0.193781067695554,694608,444589
1402.16872685072,0.19757349259502,690886,438362
1405.47883871051,0.201695487235584,688076,432455
1408.7846802118,0.206699324765896,685327,425793
1412.08625135461,0.211744615388826,682658,419236
1415.38355213892,0.217221558715751,680486,412665
1418.67658256475,0.222108998664228,678278,406723
1421.96534263208,0.227021135720296,676931,401350
1425.24983234092,0.231579620777471,675693,396433
1429.62250917284,0.236372892910214,673517,390819
1432.89703471187,0.239519607233443,672728,387543
1436.16728989241,0.24208913303721,671361,384474
1439.43327471445,0.243866220503625,670693,382523
1442.69498917801,0.245413535146734,669682,380588
1445.95243328308,0.246191087710392,668973,379505
1449.20560702965,0.246799730421825,667657,378228
1452.45451041774,0.247162335067833,665683,376795
1455.69914344733,0.247077047874919,663604,375692
1460.01867804025,0.247188064280464,660892,374061
1463.25334690003,0.24711862294272,658398,372709
1466.48374540132,0.246683053064627,655375,371370
1469.70987354412,0.246401577479923,652439,369946
1472.93173132843,0.245981059791108,649318,368533
1476.14931875425,0.244824211226053,645779,367502
1479.36263582158,0.243917718471315,642586,366449
1482.57168253042,0.243204550050161,638517,364727
1485.77645888076,0.242171463913768,634457,363271
1488.97696487262,0.241478119054623,630362,361503
1493.23766341522,0.240096470694639,624023,359008
1496.42820523726,0.239488961528759,619641,356986
1499.61447670082,0.238385992206192,614546,354951
1502.79647780588,0.23742955766404,609162,352617
1505.97420855245,0.236596162378181,603856,350217
1509.14766894053,0.235408916516548,598256,347919
1512.31685897012,0.234261759354287,592212,345315
1515.48177864122,0.233496986244147,585714,342128
1518.64242795382,0.232319336942747,579612,339483
1522.84998425743,0.231161318855554,570893,335269
1526.00066940022,0.230665610314319,564532,331912
1529.14708418453,0.229648864890748,557244,328395
1532.28922861034,0.229623902552593,549887,324078
1535.42710267766,0.229103190315861,541878,319741
1538.5607063865,0.228579278264905,534178,315578
1541.69003973684,0.228590967890616,525837,310642
1544.81510272869,0.227945043376493,517343,306079
1547.93589536205,0.227808678294664,508798,301118
1551.05241763692,0.227365177615785,500249,296361
1555.2011378902,0.22714619026842,488904,289786
1558.30769599526,0.226995881104465,480319,284796
1561.40998374183,0.226389106673374,471566,279997
1564.5080011299,0.226517799215459,462782,274700
1567.60174815948,0.225256731314259,453189,269788
1570.69122483058,0.225542200196336,443963,264122
1573.77643114318,0.225157423563809,434281,258591
1576.85736709729,0.224914656261936,425181,253314
1579.93403269291,0.224434373949842,415436,247782
1584.0296107072,0.223732846639652,403028,240770
1587.09631213301,0.223227982217037,393491,235346
1590.15874320033,0.222767272424936,384808,230397
1593.21690390916,0.221886926655905,375418,225231
1596.27079425949,0.221105845578185,366030,219994
1599.32041425134,0.220203706579643,357309,215199
1602.36576388469,0.219821453796218,348370,210000
1605.40684315956,0.218632141950135,339162,205010
1608.44365207593,0.218295405552027,330313,199816
1611.47619063381,0.216689465987369,321213,195031
1615.51293259778,0.216267241354966,309732,188243
1618.53550698585,0.215477831124358,300836,183169
1621.55381101543,0.2152070502535,292504,178207
1624.56784468652,0.215239976752864,283864,172930
1627.57760799912,0.213940194661841,275327,168232
1630.58310095323,0.213398747724179,266906,163290
1633.58432354884,0.213281937412723,258680,158300
1636.58127578597,0.2125007775645,250025,153279
1639.5739576646,0.213048832880923,242266,148335
1643.55755738958,0.213144482274047,231536,141734
1646.5402750984,0.213507933946395,223488,136693
1649.51872244873,0.21363821637739,215646,131857
1652.49289944057,0.215377489059429,207720,126503
1655.46280607392,0.216008878797829,199986,121616
1658.42844234878,0.216277561740664,192475,116976
1661.38980826515,0.217117882999713,184763,112072
1664.34690382303,0.219169862802819,176864,106775
1667.29972902242,0.220012667903108,168292,101403
1670.24828386331,0.220118555458071,159324,95976
1674.17304753796,0.220814670723561,145001,87208
1677.11163820905,0.220127798636839,132645,79903
1680.04595852164,0.219422638769235,119363,72019
1682.97600847574,0.220588355604313,105515,63493
1685.90178807136,0.219947124679865,91988,55435
1688.82329730848,0.221340644607684,79159,47551
1691.74053618711,0.223436264275177,67421,40305
1694.65350470725,0.221719294731827,57023,34224
1697.56220286889,0.216841694514848,48178,29242
1701.43382430455,0.21860532707014,38953,23547
