***Scan Config Information***,,,,,,,***Reference Scan Information***,,,,,,,,
Scan Config Name:,herbario,,,,,,Scan Config Name:,Local New Reference,,,,,,,
Scan Config Type:,Slew,Num Section:,1,,,,Scan Config Type:,Slew,Num Section:,1,,,,,
Section Config Type:,Column,,,,,,Section Config Type:,Column,,,,,,,
Start Wavelength (nm):,900,,,,,,Start Wavelength (nm):,900,,,,,,,
End Wavelength (nm):,1700,,,,,,End Wavelength (nm):,1700,,,,,,,
Pattern Width (nm):,7.03,,,,,,Pattern Width (nm):,7.03,,,,,,,
Exposure (ms):,0.635,,,,,,Exposure (ms):,0.635,,,,,,,
Digital Resolution:,228,,,,,,Digital Resolution:,228,,,,,,,
Num Repeats:,20,,,,,,Num Repeats:,20,,,,,,,
PGA Gain:,64,(FixedPGA),,,,,PGA Gain:,64,(AutoPGA),,,,,,
System Temp (C):,38.56,,,,,,System Temp (C):,37.82,,,,,,,
Humidity (%):,34.8,,,,,,Humidity (%):,36.09,,,,,,,
Lamp Indicator:,1097,,,,,,Lamp Indicator:,1099,,,,,,,
Data Date-Time:,2023/11/13T09:32:31,,,,,,Data Date-Time:,2023/11/13T09:28:22,,,,,,,
Total Measurement Time in sec:,6.7994685,,,,,,,,,,,,,,
,,,,,,,,,,,,,,,
***General Information***,,,,,,,***Calibration Coefficients***,,,,,,,,
Model Name:,NIR-S-G1,,,,,,Shift Vector Coefficients:,-5.08535400046452,0.0413457073195706,-8.39863846568903E-05,,,,,
Serial Number:,B07R011,(95UB122GC0AB07R011),,,,,Pixel to Wavelength Coefficients:,1794.37724621797,-0.920219689099738,-0.000237242138379873,,,,,
GUI Version:,3.9.4,Revision:,526,,,,Versions (Cal/Ref/Cfg):,1,3,1,,,,,
TIVA Version:,2.4.7,,,,,,***Lamp Usage ***,,,,,,,,
DLPC Version:,2.3.1,,,,,,Total Time(hh:mm:ss):,1hr 46min 20sec ,,,,,,,
UUID:,DE:67:0C:88:67:2B:47:21,,,,,,***Device/Error/Activation Status***,,,,,,,,
Main Board Version:,D,,,,,,Device Status:,0x00000001,Activation Status:,Activated,,,,,
Detector Board Version:,B,,,,,,Error status:,0x00000000,Error Code:,0x00000000000000000000000000000000,,,,,
,,,,,,,,,Error Details:,Not found,,,,,
***Scan Data***,,,,,,,,,,,,,,,
Wavelength (nm),Absorbance (AU),Reference Signal (unitless),Sample Signal (unitless)
901.81429527209,0.339440657524805,86183,39444
905.716563509274,0.337400119884066,93621,43050
909.614561387966,0.335699872029342,101229,46731
913.508288908168,0.333646665390704,110488,51247
917.397746069878,0.330423359108415,121422,56738
921.282932873098,0.327592582098946,135261,63618
925.163849317827,0.327580302988407,152083,71532
929.040495404065,0.325332457024303,170888,80794
932.912871131812,0.323316600413257,190295,90388
938.069395988934,0.32172281401667,213928,101987
941.931807546869,0.31814812937641,229681,110402
945.789948746314,0.317502314254131,243534,117235
949.643819587268,0.316045257505362,255745,123527
953.493420069731,0.313907735016135,267141,129668
957.338750193702,0.31343299173683,278423,135292
961.179809959184,0.312121193654181,289311,141008
965.016599366174,0.310797745905581,299370,146356
968.849118414673,0.309613422294395,309146,151548
973.952501032798,0.308783324237054,322364,158330
977.775055911486,0.308372186441165,332142,163287
981.593340431682,0.306945438640219,340689,168040
985.407354593388,0.305230054615704,348490,172568
989.217098396603,0.304789093958709,355871,176402
993.022571841327,0.303440301272984,362269,180132
996.823774927561,0.303053556784401,367854,183072
1000.6207076553,0.301696088053618,373232,186330
1004.41337002455,0.300817245729826,377555,188870
1008.20176203532,0.299814809573395,381158,191113
1013.24630860312,0.298919726910532,384734,193304
1017.02473644407,0.298255313361403,386932,194706
1020.79889392653,0.296812442778865,388786,196290
1024.5687810505,0.296939829144926,390174,196933
1028.33439781597,0.295366358121464,390358,197741
1032.09574422296,0.294923947632543,390635,198083
1035.85282027145,0.293991726229337,390862,198624
1039.60562596146,0.293594960548918,390857,198803
1043.35416129297,0.292214194705152,390753,199383
1048.34556562178,0.291893525174765,390257,199277
1052.08413678348,0.291369980553486,390446,199614
1055.81843758669,0.290122691802867,389808,199861
1059.54846803141,0.290529723481982,389990,199767
1063.27422811764,0.289766542373371,390077,200163
1066.99571784538,0.289335340710083,390089,200368
1070.71293721462,0.288336530535918,390504,201043
1074.42588622538,0.288494493903367,391536,201501
1078.13456487764,0.287967629336138,392643,202316
1081.83897317142,0.287344561186075,394332,203478
1086.77154144991,0.286856148340369,396384,204767
1090.46598557387,0.286349959145191,398606,206155
1094.15615933934,0.2856726320761,401008,207721
1097.84206274632,0.285366923587521,403444,209130
1101.52369579481,0.285536068610173,406469,210616
1105.20105848481,0.285262225070988,409777,212464
1108.87415081632,0.28533244417889,413165,214186
1112.54297278934,0.285732228472303,416851,215898
1116.20752440387,0.285656257233392,420305,217725
1121.08695044336,0.286414569700293,426168,220377
1124.74153788807,0.28660840894132,430216,222371
1128.3918549743,0.28649705427539,434887,224843
1132.03790170203,0.286910586801098,439456,226989
1135.67967807127,0.287199854740873,444193,229283
1139.31718408202,0.287698625181148,449048,231523
1142.95041973428,0.287819196989347,454019,234021
1146.57938502805,0.288808825126704,459461,236287
1150.20407996333,0.289232229013509,464672,238734
1153.82450454012,0.289987880488888,470227,241168
1158.6450945293,0.291601531323938,478694,244600
1162.25555493627,0.291675506207938,484266,247405
1165.86174498476,0.293197170722747,490951,249943
1169.46366467475,0.293102399343806,497297,253229
1173.06131400625,0.293935158959454,504170,256237
1176.65469297927,0.294732273628241,511341,259405
1180.24380159379,0.29611252320308,518387,262145
1183.82863984982,0.296090899424072,526334,266177
1187.40920774736,0.296864571680696,534481,269816
1192.17665549754,0.297280032440879,544742,274733
1195.74725922527,0.296994832714917,552889,279025
1199.3135925945,0.29738370685904,561365,283049
1202.87565560525,0.297319523671824,569795,287342
1206.43344825751,0.297293379094841,578174,291585
1209.98697055127,0.297205884621559,587163,296178
1213.53622248654,0.296283100896124,595537,301041
1217.08120406333,0.296084829695418,604013,305465
1220.62191528162,0.295524623875582,612670,310243
1224.15835614142,0.294824527097465,620727,314830
1228.86696784128,0.293726423182732,631335,321021
1232.39344453127,0.293694635274342,639202,325045
1235.91565086277,0.29290444825582,646991,329605
1239.43358683578,0.292949302064504,653864,333072
1242.94725245029,0.292137357476365,660604,337135
1246.45664770632,0.2926295359008,667501,340269
1249.96177260386,0.292509802163433,672869,343100
1253.4626271429,0.29199567750881,678206,346231
1256.95921132345,0.291932789774373,683909,349193
1261.61468078432,0.292065038717303,693145,353801
1265.10130079506,0.29202906013047,700087,357374
1268.58365044731,0.292407810232146,706723,360447
1272.06172974107,0.29231998139534,713298,363874
1275.53553867634,0.292341334863946,719077,366804
1279.00507725312,0.292148680278371,724280,369622
1282.4703454714,0.292259333822274,729492,372187
1285.9313433312,0.292126446496388,733895,374548
1289.38807083251,0.292101782303799,738250,376792
1292.84052797532,0.291831330603802,741640,378758
1297.43716138587,0.292086505275424,746396,380963
1300.87965435887,0.292473180775789,749918,382420
1304.31787697338,0.292235217574307,752206,383797
1307.7518292294,0.292358465694492,754378,384796
1311.18151112693,0.292667983609285,756656,385683
1314.60692266597,0.293075805301462,758604,386313
1318.02806384652,0.293355743528646,759718,386631
1321.44493466858,0.293851570207542,760397,386535
1324.85753513215,0.294682312768618,761508,386360
1329.4010263037,0.295534205423613,761763,385732
1332.80366259745,0.296498065734367,761979,384986
1336.20202853272,0.297488910722704,761575,383905
1339.59612410949,0.298644670960117,760959,382575
1342.98594932777,0.300067842357212,760180,380933
1346.37150418756,0.301928462544917,758229,378331
1349.75278868886,0.303257996550314,755908,376020
1353.12980283167,0.304987926988493,752860,373015
1356.50254661599,0.306641810448484,750396,370381
1359.87102004182,0.308246856133467,747385,367534
1364.35567516305,0.310478243454584,744594,364285
1367.71418441907,0.311971306250286,742767,362144
1371.06842331659,0.312946367168198,740095,360032
1374.41839185563,0.314392665805282,735640,356675
1377.76409003617,0.316377276451425,729696,352180
1381.10551785823,0.317582646086943,723326,348138
1384.44267532179,0.319827866550637,717629,343615
1387.77556242686,0.322240519441726,712086,339072
1391.10417917344,0.325525366550965,707183,334200
1395.53569205567,0.330267556559559,701089,327722
1398.85434463244,0.334802314815754,697516,322665
1402.16872685072,0.340586297128497,694155,316862
1405.47883871051,0.346353803718078,691296,311394
1408.7846802118,0.352770954300582,688512,305591
1412.08625135461,0.359829352600293,685827,299492
1415.38355213892,0.367000458183686,683668,293660
1418.67658256475,0.374459985324547,681998,287954
1421.96534263208,0.380294778967689,680070,283308
1425.24983234092,0.386907277802596,678800,278506
1429.62250917284,0.394349063196595,677066,273075
1432.89703471187,0.398659769385466,676052,269973
1436.16728989241,0.403215935219999,674588,266577
1439.43327471445,0.406556803798437,674052,264324
1442.69498917801,0.409398705948486,672956,262173
1445.95243328308,0.411854853743644,672232,260414
1449.20560702965,0.413918951408912,670976,258695
1452.45451041774,0.41534147859759,668954,257072
1455.69914344733,0.416476076197856,666960,255637
1460.01867804025,0.417662528717187,664222,253893
1463.25334690003,0.41781767286028,661591,252797
1466.48374540132,0.418612779891119,658687,251227
1469.70987354412,0.418331883839813,655599,250211
1472.93173132843,0.417711273048136,652465,249371
1476.14931875425,0.417318464538607,649363,248410
1479.36263582158,0.416821392885104,645842,247346
1482.57168253042,0.415946661133895,641822,246302
1485.77645888076,0.415134722202903,637939,245270
1488.97696487262,0.414229394190185,633893,244223
1493.23766341522,0.413332801694871,627325,242192
1496.42820523726,0.412807896792752,622816,240742
1499.61447670082,0.41169339163376,617731,239390
1502.79647780588,0.410789005071964,612434,237832
1505.97420855245,0.410279971807639,606930,235971
1509.14766894053,0.408941801673208,601214,234470
1512.31685897012,0.407602002888752,595221,232850
1515.48177864122,0.406592067834848,588442,230734
1518.64242795382,0.406100495404816,582521,228671
1522.84998425743,0.40518412156041,573606,225647
1526.00066940022,0.404446429186545,567118,223474
1529.14708418453,0.403584316963925,559849,221048
1532.28922861034,0.403610606830114,552221,218023
1535.42710267766,0.40329529579066,544622,215179
1538.5607063865,0.403038065156125,536286,212011
1541.69003973684,0.403048022986606,528191,208806
1544.81510272869,0.40435696702369,520012,204954
1547.93589536205,0.403721387251309,511309,201819
1551.05241763692,0.403919147519005,502701,198331
1555.2011378902,0.404293167300289,491041,193564
1558.30769599526,0.40419807550075,482546,190257
1561.40998374183,0.403815348490179,473865,186999
1564.5080011299,0.404238791939402,464691,183200
1567.60174815948,0.404476585794108,455205,179362
1570.69122483058,0.404761769894342,445686,175496
1573.77643114318,0.404741097918635,436411,171852
1576.85736709729,0.404892279320791,427184,168160
1579.93403269291,0.404964043873199,417338,164257
1584.0296107072,0.404332473714293,404513,159441
1587.09631213301,0.405399277134177,395327,155438
1590.15874320033,0.405164842882511,386194,151929
1593.21690390916,0.404805699864878,376358,148182
1596.27079425949,0.404306649867173,367455,144843
1599.32041425134,0.403414802605492,358544,141621
1602.36576388469,0.404095482827813,349699,137911
1605.40684315956,0.403358050339714,340337,134447
1608.44365207593,0.403564800942728,331169,130763
1611.47619063381,0.40293637917538,322241,127422
1615.51293259778,0.403150851330657,310731,122810
1618.53550698585,0.402717100381677,301708,119363
1621.55381101543,0.403138187279492,293287,115919
1624.56784468652,0.403115818863497,284460,112436
1627.57760799912,0.404884964201085,276283,108760
1630.58310095323,0.403519858045574,267353,105576
1633.58432354884,0.403892147078972,258856,102133
1636.58127578597,0.40566158925035,250731,98525
1639.5739576646,0.407443953415992,242586,94934
1643.55755738958,0.409640211621542,231650,90197
1646.5402750984,0.411730424037755,223534,86619
1649.51872244873,0.414015112798757,215768,83171
1652.49289944057,0.418059307514782,207556,79264
1655.46280607392,0.420413141351313,199880,75920
1658.42844234878,0.422296873270729,191859,72558
1661.38980826515,0.421844403834896,183682,69538
1664.34690382303,0.424161510868064,175062,65922
1667.29972902242,0.423343797781731,165445,62418
1670.24828386331,0.423268816966358,155224,58572
1674.17304753796,0.422513215425684,138827,52476
1677.11163820905,0.421205372205045,124950,47373
1680.04595852164,0.422226325041387,110579,41826
1682.97600847574,0.424808793925666,96220,36179
1685.90178807136,0.423001968629981,82329,31085
1688.82329730848,0.423869547719373,70103,26416
1691.74053618711,0.423431128447737,59441,22421
1694.65350470725,0.422879148576699,50191,18956
1697.56220286889,0.430388253574922,42602,15814
1701.43382430455,0.430525904012759,34488,12798
