***Scan Config Information***,,,,,,,***Reference Scan Information***,,,,,,,,
Scan Config Name:,herbario,,,,,,Scan Config Name:,Local New Reference,,,,,,,
Scan Config Type:,Slew,Num Section:,1,,,,Scan Config Type:,Slew,Num Section:,1,,,,,
Section Config Type:,Column,,,,,,Section Config Type:,Column,,,,,,,
Start Wavelength (nm):,900,,,,,,Start Wavelength (nm):,900,,,,,,,
End Wavelength (nm):,1700,,,,,,End Wavelength (nm):,1700,,,,,,,
Pattern Width (nm):,7.03,,,,,,Pattern Width (nm):,7.03,,,,,,,
Exposure (ms):,0.635,,,,,,Exposure (ms):,0.635,,,,,,,
Digital Resolution:,228,,,,,,Digital Resolution:,228,,,,,,,
Num Repeats:,20,,,,,,Num Repeats:,20,,,,,,,
PGA Gain:,64,(FixedPGA),,,,,PGA Gain:,64,(AutoPGA),,,,,,
System Temp (C):,41.6,,,,,,System Temp (C):,41.25,,,,,,,
Humidity (%):,18.69,,,,,,Humidity (%):,18.87,,,,,,,
Lamp Indicator:,1125,,,,,,Lamp Indicator:,1123,,,,,,,
Data Date-Time:,2023/11/10T18:28:43,,,,,,Data Date-Time:,2023/11/10T18:26:48,,,,,,,
Total Measurement Time in sec:,6.8198028,,,,,,,,,,,,,,
,,,,,,,,,,,,,,,
***General Information***,,,,,,,***Calibration Coefficients***,,,,,,,,
Model Name:,NIR-S-G1,,,,,,Shift Vector Coefficients:,-5.08535400046452,0.0413457073195706,-8.39863846568903E-05,,,,,
Serial Number:,B07R011,(95UB122GC0AB07R011),,,,,Pixel to Wavelength Coefficients:,1794.37724621797,-0.920219689099738,-0.000237242138379873,,,,,
GUI Version:,3.9.4,Revision:,526,,,,Versions (Cal/Ref/Cfg):,1,3,1,,,,,
TIVA Version:,2.4.7,,,,,,***Lamp Usage ***,,,,,,,,
DLPC Version:,2.3.1,,,,,,Total Time(hh:mm:ss):,1hr 34min 21sec ,,,,,,,
UUID:,DE:67:0C:88:67:2B:47:21,,,,,,***Device/Error/Activation Status***,,,,,,,,
Main Board Version:,D,,,,,,Device Status:,0x00000001,Activation Status:,Activated,,,,,
Detector Board Version:,B,,,,,,Error status:,0x00000000,Error Code:,0x00000000000000000000000000000000,,,,,
,,,,,,,,,Error Details:,Not found,,,,,
***Scan Data***,,,,,,,,,,,,,,,
Wavelength (nm),Absorbance (AU),Reference Signal (unitless),Sample Signal (unitless)
901.81429527209,0.208515535358533,86891,53760
905.716563509274,0.208549325290612,94490,58457
909.614561387966,0.208277903297145,102222,63280
913.508288908168,0.206608962475629,111292,69160
917.397746069878,0.205667966038932,121978,75965
921.282932873098,0.20426746740259,135478,84645
925.163849317827,0.204535434290434,151649,94690
929.040495404065,0.202457827718896,170240,106808
932.912871131812,0.202816089016032,189834,119003
938.069395988934,0.201325467895091,213807,134492
941.931807546869,0.200417327896029,230013,144989
945.789948746314,0.200423728807289,244710,154251
949.643819587268,0.199434931882889,256995,162364
953.493420069731,0.198419119706644,268715,170166
957.338750193702,0.198774774118656,280349,177388
961.179809959184,0.199661807939898,291330,183960
965.016599366174,0.198462191576842,301294,190778
968.849118414673,0.198470450648797,311559,197274
973.952501032798,0.198111348500837,324702,205766
977.775055911486,0.19743593731858,334489,212298
981.593340431682,0.197480387985571,343029,217696
985.407354593388,0.197551313267083,350987,222710
989.217098396603,0.197047890454756,358522,227755
993.022571841327,0.196840049545953,365039,232006
996.823774927561,0.195772074415979,370317,235940
1000.6207076553,0.195712697563833,375872,239512
1004.41337002455,0.195444984862186,380645,242703
1008.20176203532,0.195085373601822,384152,245142
1013.24630860312,0.193973395375086,387479,247899
1017.02473644407,0.193964345019928,389953,249487
1020.79889392653,0.193583099623307,391819,250901
1024.5687810505,0.192662276073445,392976,252176
1028.33439781597,0.192424072125904,393329,252541
1032.09574422296,0.192168076040657,393614,252873
1035.85282027145,0.191891281540171,394071,253328
1039.60562596146,0.19126569881878,393729,253473
1043.35416129297,0.190605271868632,393900,253969
1048.34556562178,0.190055530160794,393490,254026
1052.08413678348,0.190035213538129,393168,253830
1055.81843758669,0.18951893717234,392803,253896
1059.54846803141,0.189205390229869,392620,253961
1063.27422811764,0.188331149617876,392750,254557
1066.99571784538,0.188493979968849,392834,254516
1070.71293721462,0.188505603085056,393536,254964
1074.42588622538,0.187274142290284,394204,256122
1078.13456487764,0.187657258968047,395621,256816
1081.83897317142,0.187300959659106,397276,258102
1086.77154144991,0.186816374611718,399499,259836
1090.46598557387,0.18661857338631,401610,261328
1094.15615933934,0.186274103695321,404395,263349
1097.84206274632,0.186058491945288,406650,264949
1101.52369579481,0.185800000834767,409505,266968
1105.20105848481,0.18604022272781,413062,269138
1108.87415081632,0.185988328676075,416579,271462
1112.54297278934,0.185738688470543,419976,273833
1116.20752440387,0.185449158309523,423655,276416
1121.08695044336,0.185681084711528,429362,279990
1124.74153788807,0.185472836746852,433664,282931
1128.3918549743,0.185971137267051,438236,285586
1132.03790170203,0.186194409939918,443273,288720
1135.67967807127,0.186324273876211,447976,291696
1139.31718408202,0.186367334031127,452728,294761
1142.95041973428,0.18686029295612,458298,298049
1146.57938502805,0.187043464193086,463417,301251
1150.20407996333,0.187427464674483,468817,304492
1153.82450454012,0.187413605255808,474474,308176
1158.6450945293,0.18833335234124,482571,312772
1162.25555493627,0.188440175646513,488443,316500
1165.86174498476,0.18895871774013,495088,320423
1169.46366467475,0.189376185755578,501800,324455
1173.06131400625,0.189001510062519,508579,329122
1176.65469297927,0.189881010216988,515802,333121
1180.24380159379,0.190196979330422,523127,337606
1183.82863984982,0.190384136849497,530905,342478
1187.40920774736,0.190340931267714,538576,347461
1192.17665549754,0.190561547559594,549510,354335
1195.74725922527,0.190520358570849,557433,359478
1199.3135925945,0.190511842356192,566177,365124
1202.87565560525,0.190658157576813,574181,370161
1206.43344825751,0.190347050039984,582771,375968
1209.98697055127,0.19010106488605,591592,381875
1213.53622248654,0.190266068596674,600480,387465
1217.08120406333,0.189504565456953,608831,393543
1220.62191528162,0.189189489953803,617260,399281
1224.15835614142,0.188843665243123,625765,405105
1228.86696784128,0.187804359976616,636585,413097
1232.39344453127,0.187240238653242,644137,418541
1235.91565086277,0.187252492715046,651755,423479
1239.43358683578,0.187095768074729,659020,428354
1242.94725245029,0.186674001264358,665575,433035
1246.45664770632,0.186506084855799,672462,437685
1249.96177260386,0.186076061059873,677847,441627
1253.4626271429,0.18610262095499,683617,445359
1256.95921132345,0.186006788549949,689528,449309
1261.61468078432,0.18566587917355,698597,455576
1265.10130079506,0.185624186806332,705695,460249
1268.58365044731,0.18530828323681,712236,464853
1272.06172974107,0.18527344204049,718710,469116
1275.53553867634,0.184983327180989,724642,473304
1279.00507725312,0.184877839416391,729733,476745
1282.4703454714,0.184605328277766,734877,480407
1285.9313433312,0.184565216636524,739693,483600
1289.38807083251,0.184736768136978,743575,485946
1292.84052797532,0.184806121909035,747431,488388
1297.43716138587,0.184271595876531,751944,491942
1300.87965435887,0.184320589317939,755181,494004
1304.31787697338,0.184378675460626,757768,495630
1307.7518292294,0.184281950628254,760155,497302
1311.18151112693,0.184882933325463,762498,498145
1314.60692266597,0.18471686267313,764038,499342
1318.02806384652,0.185073699963934,765202,499692
1321.44493466858,0.185137804064421,766263,500311
1324.85753513215,0.185534878305981,766875,500253
1329.4010263037,0.186429206238584,767783,499815
1332.80366259745,0.186608326635032,767296,499292
1336.20202853272,0.187504292342796,767142,498163
1339.59612410949,0.188352396529708,766915,497044
1342.98594932777,0.189199193139397,765963,495460
1346.37150418756,0.19007316602544,764019,493209
1349.75278868886,0.19105427062429,761940,490757
1353.12980283167,0.192352083902035,759463,487702
1356.50254661599,0.193292307482967,757440,485351
1359.87102004182,0.194236942183789,754280,482276
1364.35567516305,0.195933406474321,751429,478580
1367.71418441907,0.196599216598093,749278,476479
1371.06842331659,0.197747264648825,746331,473352
1374.41839185563,0.199046040106076,741714,469019
1377.76409003617,0.200617499238344,735967,463704
1381.10551785823,0.202098870358658,729490,458058
1384.44267532179,0.204683268676836,723823,451803
1387.77556242686,0.207132280894753,717990,445642
1391.10417917344,0.21055078024963,713086,439128
1395.53569205567,0.215533166383692,707107,430479
1398.85434463244,0.219957895004333,703283,423811
1402.16872685072,0.225866130458964,699595,415892
1405.47883871051,0.232235300400796,696860,408235
1408.7846802118,0.239037051437895,694042,400266
1412.08625135461,0.2460385722953,691452,392395
1415.38355213892,0.252776691690349,688764,384852
1418.67658256475,0.259000626101176,687072,378444
1421.96534263208,0.264605099456436,685480,372726
1425.24983234092,0.269597918178736,683907,367620
1429.62250917284,0.275498674946965,681878,361583
1432.89703471187,0.279151998974137,681081,358135
1436.16728989241,0.282190902217508,679513,354819
1439.43327471445,0.28429491928907,678766,352716
1442.69498917801,0.285844814709536,677952,351038
1445.95243328308,0.287142246682136,676976,349487
1449.20560702965,0.287658208901285,676078,348609
1452.45451041774,0.287794910342472,673765,347307
1455.69914344733,0.287976510130861,671877,346189
1460.01867804025,0.28698893722824,668796,345386
1463.25334690003,0.286502225219928,666633,344655
1466.48374540132,0.285747654375573,663319,343538
1469.70987354412,0.284788741749017,660282,342721
1472.93173132843,0.283369211206963,657027,342148
1476.14931875425,0.281848564736351,654055,341795
1479.36263582158,0.280593725102056,650319,340826
1482.57168253042,0.27874076805621,646378,340209
1485.77645888076,0.277428756602187,642015,338935
1488.97696487262,0.275881838043227,638009,338022
1493.23766341522,0.273895045931878,631544,336131
1496.42820523726,0.272731023182077,627144,334685
1499.61447670082,0.271012371809364,622125,333323
1502.79647780588,0.269472794475375,616533,331500
1505.97420855245,0.268038559235051,611045,329636
1509.14766894053,0.266266951301647,605395,327923
1512.31685897012,0.265028406117172,599297,325547
1515.48177864122,0.263509413589413,592523,322995
1518.64242795382,0.262474047181285,586643,320553
1522.84998425743,0.260924886870981,577816,316858
1526.00066940022,0.259465347946266,570654,313984
1529.14708418453,0.259035831563394,564051,310658
1532.28922861034,0.257593634970227,556287,307401
1535.42710267766,0.256743125400119,548321,303593
1538.5607063865,0.256310063359336,540689,299666
1541.69003973684,0.255373912080122,531972,295471
1544.81510272869,0.254642234204951,523168,291071
1547.93589536205,0.254685668734095,515178,286597
1551.05241763692,0.253147069900216,506279,282646
1555.2011378902,0.252534661452719,494558,276492
1558.30769599526,0.252201039311226,486264,272064
1561.40998374183,0.251940596233813,477361,267243
1564.5080011299,0.251506558576138,468176,262363
1567.60174815948,0.250649503461012,458749,257588
1570.69122483058,0.250542658694366,449171,252272
1573.77643114318,0.249611984830549,439541,247393
1576.85736709729,0.248987250632038,430113,242435
1579.93403269291,0.249216019891008,420472,236876
1584.0296107072,0.247936431529828,407692,230354
1587.09631213301,0.247564298942885,398174,225169
1590.15874320033,0.24730401332291,389502,220397
1593.21690390916,0.246381498170133,379514,215202
1596.27079425949,0.246351566452153,370759,210252
1599.32041425134,0.24490171284324,361509,205692
1602.36576388469,0.244709201254014,352421,200610
1605.40684315956,0.243220100662777,342995,195915
1608.44365207593,0.243133924993471,334105,190875
1611.47619063381,0.241866468199313,325028,186232
1615.51293259778,0.241746141682498,313260,179539
1618.53550698585,0.241359532007059,304591,174726
1621.55381101543,0.240725611108973,295807,169935
1624.56784468652,0.241449501037348,287218,164726
1627.57760799912,0.240359069073559,278539,160150
1630.58310095323,0.239951637882356,269979,155374
1633.58432354884,0.24025046612671,261636,150469
1636.58127578597,0.241009823988094,253200,145363
1639.5739576646,0.241061285472839,245011,140645
1643.55755738958,0.242768911814999,234311,133975
1646.5402750984,0.244357030090188,226219,128876
1649.51872244873,0.243996984527441,217855,124214
1652.49289944057,0.246392956789657,210066,119114
1655.46280607392,0.24831874540908,202596,114370
1658.42844234878,0.249662212229661,194755,109604
1661.38980826515,0.25060565897119,186898,104954
1664.34690382303,0.250957191281919,178812,100332
1667.29972902242,0.252599937175058,170069,95066
1670.24828386331,0.252364747164477,161332,90231
1674.17304753796,0.254600645459614,146750,81654
1677.11163820905,0.25516775626958,134316,74638
1680.04595852164,0.254250952154234,121105,67439
1682.97600847574,0.253825391308979,107081,59688
1685.90178807136,0.256481035688437,93563,51835
1688.82329730848,0.255101607763389,80288,44622
1691.74053618711,0.258413981446135,68485,37773
1694.65350470725,0.2569621048853,57689,31925
1697.56220286889,0.262320034713018,49203,26895
1701.43382430455,0.262592815523733,39475,21564
