***Scan Config Information***,,,,,,,***Reference Scan Information***,,,,,,,,
Scan Config Name:,herbario,,,,,,Scan Config Name:,Local New Reference,,,,,,,
Scan Config Type:,Slew,Num Section:,1,,,,Scan Config Type:,Slew,Num Section:,1,,,,,
Section Config Type:,Column,,,,,,Section Config Type:,Column,,,,,,,
Start Wavelength (nm):,900,,,,,,Start Wavelength (nm):,900,,,,,,,
End Wavelength (nm):,1700,,,,,,End Wavelength (nm):,1700,,,,,,,
Pattern Width (nm):,7.03,,,,,,Pattern Width (nm):,7.03,,,,,,,
Exposure (ms):,0.635,,,,,,Exposure (ms):,0.635,,,,,,,
Digital Resolution:,228,,,,,,Digital Resolution:,228,,,,,,,
Num Repeats:,20,,,,,,Num Repeats:,20,,,,,,,
PGA Gain:,64,(FixedPGA),,,,,PGA Gain:,64,(AutoPGA),,,,,,
System Temp (C):,31.19,,,,,,System Temp (C):,27.97,,,,,,,
Humidity (%):,58.17,,,,,,Humidity (%):,66.16,,,,,,,
Lamp Indicator:,1031,,,,,,Lamp Indicator:,1004,,,,,,,
Data Date-Time:,2023/11/10T11:32:14,,,,,,Data Date-Time:,2023/11/10T11:26:51,,,,,,,
Total Measurement Time in sec:,6.8935362,,,,,,,,,,,,,,
,,,,,,,,,,,,,,,
***General Information***,,,,,,,***Calibration Coefficients***,,,,,,,,
Model Name:,NIR-S-G1,,,,,,Shift Vector Coefficients:,-5.08535400046452,0.0413457073195706,-8.39863846568903E-05,,,,,
Serial Number:,B07R011,(95UB122GC0AB07R011),,,,,Pixel to Wavelength Coefficients:,1794.37724621797,-0.920219689099738,-0.000237242138379873,,,,,
GUI Version:,3.9.4,Revision:,526,,,,Versions (Cal/Ref/Cfg):,1,3,1,,,,,
TIVA Version:,2.4.7,,,,,,***Lamp Usage ***,,,,,,,,
DLPC Version:,2.3.1,,,,,,Total Time(hh:mm:ss):,46min 58sec ,,,,,,,
UUID:,DE:67:0C:88:67:2B:47:21,,,,,,***Device/Error/Activation Status***,,,,,,,,
Main Board Version:,D,,,,,,Device Status:,0x00000001,Activation Status:,Activated,,,,,
Detector Board Version:,B,,,,,,Error status:,0x00000000,Error Code:,0x00000000000000000000000000000000,,,,,
,,,,,,,,,Error Details:,Not found,,,,,
***Scan Data***,,,,,,,,,,,,,,,
Wavelength (nm),Absorbance (AU),Reference Signal (unitless),Sample Signal (unitless)
901.81429527209,0.134107255931156,83070,61001
905.716563509274,0.134822490113306,90499,66347
909.614561387966,0.135365234787551,98207,71908
913.508288908168,0.135030430220608,107710,78927
917.397746069878,0.134347854446224,119166,87459
921.282932873098,0.135425678531413,133960,98073
925.163849317827,0.133427676802023,151472,111405
929.040495404065,0.133663207323287,170669,125456
932.912871131812,0.132819091876918,189509,139576
938.069395988934,0.130871934476365,210876,156011
941.931807546869,0.12873474110182,224877,167190
945.789948746314,0.127281211583693,236775,176626
949.643819587268,0.127042133775731,247954,185067
953.493420069731,0.125980927355209,258255,193227
957.338750193702,0.125971270210872,268809,201128
961.179809959184,0.126131547522398,278671,208430
965.016599366174,0.126335865028026,288516,215692
968.849118414673,0.125420318054731,297762,223074
973.952501032798,0.125616745516946,310479,232496
977.775055911486,0.125718469347266,319807,239425
981.593340431682,0.126222713830685,328015,245285
985.407354593388,0.126253214118039,335526,250884
989.217098396603,0.125134952979052,342408,256690
993.022571841327,0.12561725951007,348464,260940
996.823774927561,0.125412178557199,353664,264959
1000.6207076553,0.125273350018862,358791,268886
1004.41337002455,0.124444961282119,363043,272592
1008.20176203532,0.123595320741628,365921,275291
1013.24630860312,0.123646193718324,369274,277781
1017.02473644407,0.122759774078845,371250,279838
1020.79889392653,0.122700429551451,372994,281191
1024.5687810505,0.122326149063849,374002,282194
1028.33439781597,0.121727317491214,374294,282804
1032.09574422296,0.121937576535989,374560,282868
1035.85282027145,0.121521408318794,374823,283338
1039.60562596146,0.120888281628664,374594,283578
1043.35416129297,0.120731255326385,374724,283779
1048.34556562178,0.120153407079183,373962,283579
1052.08413678348,0.120218110485568,374114,283652
1055.81843758669,0.120045926633519,373822,283543
1059.54846803141,0.120114365493843,373724,283424
1063.27422811764,0.119697938428671,373516,283538
1066.99571784538,0.119584026013036,373717,283765
1070.71293721462,0.119400548215108,374220,284267
1074.42588622538,0.118936224728113,375122,285257
1078.13456487764,0.119652960376036,376661,285955
1081.83897317142,0.118713750316868,378016,287605
1086.77154144991,0.118938999111728,380161,289087
1090.46598557387,0.119015721213789,382522,290831
1094.15615933934,0.119123589077489,384943,292599
1097.84206274632,0.118742103134506,387343,294682
1101.52369579481,0.119045918394372,389766,296318
1105.20105848481,0.118925366347664,393303,299090
1108.87415081632,0.119181334980851,396523,301361
1112.54297278934,0.119131254621945,399494,303654
1116.20752440387,0.119636142383433,403299,306190
1121.08695044336,0.120308579391754,408520,309674
1124.74153788807,0.120814739091182,412392,312245
1128.3918549743,0.120883009242417,417022,315701
1132.03790170203,0.121791666333892,421484,318412
1135.67967807127,0.122482656293691,426118,321401
1139.31718408202,0.122471707311841,430892,325010
1142.95041973428,0.12253349303184,435630,328537
1146.57938502805,0.123461880855887,440938,331830
1150.20407996333,0.123853453662001,445629,335058
1153.82450454012,0.124925264413535,451302,338487
1158.6450945293,0.126200885777932,458881,343162
1162.25555493627,0.127027165732583,464503,346706
1165.86174498476,0.12771502063327,470792,350844
1169.46366467475,0.128131000784783,476957,355098
1173.06131400625,0.128350410530988,483670,359914
1176.65469297927,0.128936078428033,490432,364454
1180.24380159379,0.129352082018753,497001,368982
1183.82863984982,0.130070362563667,504946,374261
1187.40920774736,0.130421713566293,512395,379475
1192.17665549754,0.130801084037413,522430,386569
1195.74725922527,0.131477472197713,530207,391713
1199.3135925945,0.131778673115736,538584,397626
1202.87565560525,0.132015605553393,546741,403428
1206.43344825751,0.131715851545202,554495,409432
1209.98697055127,0.131588474917491,562862,415732
1213.53622248654,0.131613747517238,571303,421942
1217.08120406333,0.131349953535338,579389,428174
1220.62191528162,0.13072641632845,587642,434897
1224.15835614142,0.130455755104624,595524,441005
1228.86696784128,0.129875825889794,605967,449338
1232.39344453127,0.129642721322983,613547,455203
1235.91565086277,0.128960318754755,620428,461032
1239.43358683578,0.129032591176621,627432,466159
1242.94725245029,0.12859761013482,633929,471458
1246.45664770632,0.128365535256803,640291,476444
1249.96177260386,0.128108465542452,645627,480699
1253.4626271429,0.127881577395729,651046,484987
1256.95921132345,0.127779247906582,656269,488993
1261.61468078432,0.127784620070798,664935,495444
1265.10130079506,0.127354718536163,671827,501075
1268.58365044731,0.127367701197723,677988,505655
1272.06172974107,0.127551130808172,684430,510244
1275.53553867634,0.127313001105939,689896,514601
1279.00507725312,0.127351239886518,695057,518405
1282.4703454714,0.127137455085473,700074,522404
1285.9313433312,0.126963859349468,704117,525631
1289.38807083251,0.126878239298448,708422,528949
1292.84052797532,0.126811299618086,711532,531353
1297.43716138587,0.126627808255294,716271,535118
1300.87965435887,0.126654032100902,719041,537155
1304.31787697338,0.126725809919258,721713,539062
1307.7518292294,0.126972700944886,724035,540489
1311.18151112693,0.127133104718603,725731,541555
1314.60692266597,0.127359287889328,727537,542620
1318.02806384652,0.127606751080763,728495,543025
1321.44493466858,0.128393904694051,729322,542657
1324.85753513215,0.129013492696213,730374,542665
1329.4010263037,0.129846854705535,730574,541773
1332.80366259745,0.131169352300312,730665,540193
1336.20202853272,0.132407619375423,730273,538366
1339.59612410949,0.133418557944003,729843,536798
1342.98594932777,0.13527785641874,728796,533738
1346.37150418756,0.136845370406786,727146,530611
1349.75278868886,0.138545736905131,724805,526836
1353.12980283167,0.140262607311823,721763,522555
1356.50254661599,0.142038440066238,719471,518770
1359.87102004182,0.14354090098006,716065,514531
1364.35567516305,0.145727783198924,713201,509899
1367.71418441907,0.147472892572978,711611,506722
1371.06842331659,0.149060944975846,709217,503174
1374.41839185563,0.150729234459673,704848,498157
1377.76409003617,0.152841960863692,699234,491791
1381.10551785823,0.155146769801417,693072,484877
1384.44267532179,0.158065797625894,687506,477761
1387.77556242686,0.161739008685057,682274,470132
1391.10417917344,0.166263210779402,677388,461928
1395.53569205567,0.173953346711156,671954,450180
1398.85434463244,0.180872487837707,668292,440650
1402.16872685072,0.188698836630249,664635,430412
1405.47883871051,0.198024289676511,662039,419623
1408.7846802118,0.208270474699268,659865,408493
1412.08625135461,0.21826000258392,657296,397650
1415.38355213892,0.227921486501447,654679,387353
1418.67658256475,0.237317750392888,653029,378107
1421.96534263208,0.245692313280471,651605,370077
1425.24983234092,0.253159950190758,649975,362858
1429.62250917284,0.261542251785898,648270,354988
1432.89703471187,0.266841482890857,647555,350296
1436.16728989241,0.271216012983795,645943,345922
1439.43327471445,0.27493412593892,645229,342594
1442.69498917801,0.278444636393194,644259,339325
1445.95243328308,0.280407990105229,643377,337332
1449.20560702965,0.282144133607485,642312,335430
1452.45451041774,0.283129672387954,640545,333749
1455.69914344733,0.283671559299616,638420,332227
1460.01867804025,0.283849482859862,635698,330675
1463.25334690003,0.283474458739653,633605,329871
1466.48374540132,0.282233706361146,630405,329144
1469.70987354412,0.281436455019104,627446,328201
1472.93173132843,0.279512046927513,624118,327910
1476.14931875425,0.277445619891994,621163,327914
1479.36263582158,0.275303181938252,617750,327725
1482.57168253042,0.272912137693926,613854,327456
1485.77645888076,0.270617206764874,610216,327240
1488.97696487262,0.268181164683526,606367,327005
1493.23766341522,0.265277949442515,600008,325746
1496.42820523726,0.262859912582042,595649,325185
1499.61447670082,0.260796085853063,591044,324208
1502.79647780588,0.258463339055769,585691,323002
1505.97420855245,0.256526922070969,580466,321551
1509.14766894053,0.254213074107168,575252,320365
1512.31685897012,0.252277458013565,569031,318316
1515.48177864122,0.250487612430877,562872,316171
1518.64242795382,0.248859206423141,557071,314088
1522.84998425743,0.246701492898752,548458,310772
1526.00066940022,0.245167207215085,542268,308352
1529.14708418453,0.243781537973139,535229,305322
1532.28922861034,0.242167518300907,528039,302342
1535.42710267766,0.24199311447311,520767,298298
1538.5607063865,0.240605575655483,513069,294829
1541.69003973684,0.239476143950647,505172,291047
1544.81510272869,0.238742082818485,497062,286859
1547.93589536205,0.237755762253318,488981,282837
1551.05241763692,0.236677077034874,480668,278720
1555.2011378902,0.236191894792907,469656,272639
1558.30769599526,0.235387826699035,461459,268377
1561.40998374183,0.234535651681934,453026,263990
1564.5080011299,0.23319840319661,444246,259672
1567.60174815948,0.232362807613639,435278,254920
1570.69122483058,0.232336549893138,426240,249642
1573.77643114318,0.231611544406184,417175,244741
1576.85736709729,0.231217341124946,408307,239756
1579.93403269291,0.230265393805573,398886,234738
1584.0296107072,0.229737698708347,386701,227844
1587.09631213301,0.22822371423584,377856,223410
1590.15874320033,0.227806239000654,369031,218402
1593.21690390916,0.226520085658345,359614,213460
1596.27079425949,0.224914556905888,351083,209168
1599.32041425134,0.223464332468759,342301,204618
1602.36576388469,0.222912409984365,333855,199823
1605.40684315956,0.222050982829904,325063,194947
1608.44365207593,0.220414979013288,316113,190295
1611.47619063381,0.219058118366551,307564,185728
1615.51293259778,0.21767786307186,296025,179329
1618.53550698585,0.217148801096215,287632,174457
1621.55381101543,0.215944956379275,279174,169797
1624.56784468652,0.215767585763574,271094,164950
1627.57760799912,0.21572656777251,262855,159952
1630.58310095323,0.21489001626129,254373,155089
1633.58432354884,0.214216084132909,246190,150333
1636.58127578597,0.215288973690884,238341,145181
1639.5739576646,0.214940812160665,230063,140251
1643.55755738958,0.217270182948012,219469,133077
1646.5402750984,0.218258957701799,211364,127871
1649.51872244873,0.220264507439398,203219,122377
1652.49289944057,0.221187377902975,194660,116974
1655.46280607392,0.221173887840386,185836,111675
1658.42844234878,0.22051563209313,176190,106039
1661.38980826515,0.217047328840108,165482,100393
1664.34690382303,0.213799357503117,153078,93565
1667.29972902242,0.207569860517704,139178,86298
1670.24828386331,0.198652473962988,124272,78654
1674.17304753796,0.187905282648665,103424,67099
1677.11163820905,0.182681724996124,88609,58183
1680.04595852164,0.176381690996303,74792,49828
1682.97600847574,0.172918565215747,62942,42269
1685.90178807136,0.173831927900631,53299,35718
1688.82329730848,0.173417663075515,45019,30198
1691.74053618711,0.17929236341191,38264,25322
1694.65350470725,0.187835204398391,32741,21245
1697.56220286889,0.190350978638834,28157,18165
1701.43382430455,0.190977983900457,22999,14816
