***Scan Config Information***,,,,,,,***Reference Scan Information***,,,,,,,,
Scan Config Name:,herbario,,,,,,Scan Config Name:,Local New Reference,,,,,,,
Scan Config Type:,Slew,Num Section:,1,,,,Scan Config Type:,Slew,Num Section:,1,,,,,
Section Config Type:,Column,,,,,,Section Config Type:,Column,,,,,,,
Start Wavelength (nm):,900,,,,,,Start Wavelength (nm):,900,,,,,,,
End Wavelength (nm):,1700,,,,,,End Wavelength (nm):,1700,,,,,,,
Pattern Width (nm):,7.03,,,,,,Pattern Width (nm):,7.03,,,,,,,
Exposure (ms):,0.635,,,,,,Exposure (ms):,0.635,,,,,,,
Digital Resolution:,228,,,,,,Digital Resolution:,228,,,,,,,
Num Repeats:,20,,,,,,Num Repeats:,20,,,,,,,
PGA Gain:,64,(FixedPGA),,,,,PGA Gain:,64,(AutoPGA),,,,,,
System Temp (C):,41.29,,,,,,System Temp (C):,41.36,,,,,,,
Humidity (%):,18.38,,,,,,Humidity (%):,18.29,,,,,,,
Lamp Indicator:,1120,,,,,,Lamp Indicator:,1125,,,,,,,
Data Date-Time:,2023/11/10T18:52:18,,,,,,Data Date-Time:,2023/11/10T18:48:43,,,,,,,
Total Measurement Time in sec:,6.6964618,,,,,,,,,,,,,,
,,,,,,,,,,,,,,,
***General Information***,,,,,,,***Calibration Coefficients***,,,,,,,,
Model Name:,NIR-S-G1,,,,,,Shift Vector Coefficients:,-5.08535400046452,0.0413457073195706,-8.39863846568903E-05,,,,,
Serial Number:,B07R011,(95UB122GC0AB07R011),,,,,Pixel to Wavelength Coefficients:,1794.37724621797,-0.920219689099738,-0.000237242138379873,,,,,
GUI Version:,3.9.4,Revision:,526,,,,Versions (Cal/Ref/Cfg):,1,3,1,,,,,
TIVA Version:,2.4.7,,,,,,***Lamp Usage ***,,,,,,,,
DLPC Version:,2.3.1,,,,,,Total Time(hh:mm:ss):,1hr 38min 7sec ,,,,,,,
UUID:,DE:67:0C:88:67:2B:47:21,,,,,,***Device/Error/Activation Status***,,,,,,,,
Main Board Version:,D,,,,,,Device Status:,0x00000001,Activation Status:,Activated,,,,,
Detector Board Version:,B,,,,,,Error status:,0x00000000,Error Code:,0x00000000000000000000000000000000,,,,,
,,,,,,,,,Error Details:,Not found,,,,,
***Scan Data***,,,,,,,,,,,,,,,
Wavelength (nm),Absorbance (AU),Reference Signal (unitless),Sample Signal (unitless)
901.81429527209,0.209928512571516,86018,53047
905.716563509274,0.20921296762161,93082,57498
909.614561387966,0.209485295913284,100830,62245
913.508288908168,0.208753829802709,109883,67948
917.397746069878,0.208650051006617,120694,74651
921.282932873098,0.207535016698827,133979,83081
925.163849317827,0.207280072355278,150180,93182
929.040495404065,0.207334405402214,168426,104490
932.912871131812,0.207378032206782,187694,116432
938.069395988934,0.206562889504201,211331,131341
941.931807546869,0.205967340040925,227627,141663
945.789948746314,0.205783543394918,241737,150508
949.643819587268,0.206698072277705,254347,158026
953.493420069731,0.206212689512353,265735,165286
957.338750193702,0.2059118126047,277072,172457
961.179809959184,0.206750813915539,288108,178980
965.016599366174,0.206637049036741,297941,185137
968.849118414673,0.206600714083998,308086,191457
973.952501032798,0.20670116678614,321106,199502
977.775055911486,0.2069696634383,330818,205409
981.593340431682,0.206947409617521,339454,210782
985.407354593388,0.206565962068621,347029,215675
989.217098396603,0.206880250760883,354568,220201
993.022571841327,0.206774960827777,360873,224171
996.823774927561,0.206333983923051,366375,227820
1000.6207076553,0.205708026020234,371569,231383
1004.41337002455,0.206134554783859,376406,234165
1008.20176203532,0.206122095664364,379917,236356
1013.24630860312,0.206606245975308,383675,238428
1017.02473644407,0.206204700187808,385822,239984
1020.79889392653,0.205464439152235,387261,241290
1024.5687810505,0.205778855225424,388783,242063
1028.33439781597,0.205437702235515,389033,242409
1032.09574422296,0.205134064880541,389146,242649
1035.85282027145,0.205291465826871,389709,242912
1039.60562596146,0.205011431621646,389655,243035
1043.35416129297,0.204923684494185,389533,243008
1048.34556562178,0.204444786030018,388974,242927
1052.08413678348,0.204616068742436,388743,242687
1055.81843758669,0.204397307064409,388496,242655
1059.54846803141,0.20427483257027,388228,242556
1063.27422811764,0.204318851371465,388373,242622
1066.99571784538,0.204356894294892,388367,242597
1070.71293721462,0.204494231639531,389148,243008
1074.42588622538,0.20396275408514,389950,243807
1078.13456487764,0.204145951544541,391345,244576
1081.83897317142,0.203711228639542,392934,245815
1086.77154144991,0.203595310483191,395092,247231
1090.46598557387,0.203703315855677,397345,248579
1094.15615933934,0.203708458288337,399992,250232
1097.84206274632,0.203657470464918,402237,251666
1101.52369579481,0.203607524551444,405192,253544
1105.20105848481,0.20361838473721,408432,255565
1108.87415081632,0.203188357910389,412024,258068
1112.54297278934,0.203376283516031,415194,259941
1116.20752440387,0.203591974302009,419063,262233
1121.08695044336,0.203242762457736,424449,265817
1124.74153788807,0.203811229656186,428863,268230
1128.3918549743,0.204214745166777,433597,270939
1132.03790170203,0.204252651272822,438065,273707
1135.67967807127,0.204663213645195,443021,276542
1139.31718408202,0.204905235118786,447833,279390
1142.95041973428,0.204862896609411,453205,282769
1146.57938502805,0.205672051200762,458262,285392
1150.20407996333,0.205135858644972,463361,288924
1153.82450454012,0.20621284967246,469317,291913
1158.6450945293,0.206779028020556,477394,296550
1162.25555493627,0.207213334899658,483191,299851
1165.86174498476,0.207649558766338,489782,303636
1169.46366467475,0.207814421713753,496371,307604
1173.06131400625,0.208096691286521,503285,311686
1176.65469297927,0.208596107940552,510429,315747
1180.24380159379,0.20917138309134,517438,319659
1183.82863984982,0.209221892793417,525086,324346
1187.40920774736,0.209848710071817,533521,329081
1192.17665549754,0.21005801425295,543632,335156
1195.74725922527,0.210535874891479,551916,339889
1199.3135925945,0.21052044206892,560715,345320
1202.87565560525,0.210595622274291,568726,350193
1206.43344825751,0.210930810952975,576947,354981
1209.98697055127,0.210899421666362,585847,360483
1213.53622248654,0.210557020385384,594242,365937
1217.08120406333,0.211162569257193,602945,370779
1220.62191528162,0.210689977334437,611238,376288
1224.15835614142,0.21038489908368,619287,381511
1228.86696784128,0.210368462250107,629837,388025
1232.39344453127,0.210320599760186,637683,392902
1235.91565086277,0.210353094515423,645400,397627
1239.43358683578,0.210176981549039,652089,401911
1242.94725245029,0.210264113071737,658823,405980
1246.45664770632,0.21031579959326,665593,410103
1249.96177260386,0.210263668957713,670930,413441
1253.4626271429,0.210263228448925,676588,416928
1256.95921132345,0.210213053720155,681991,420306
1261.61468078432,0.210193197747088,691291,426057
1265.10130079506,0.210104059434761,698462,430565
1268.58365044731,0.210312449956073,704898,434324
1272.06172974107,0.20999231320876,711096,438466
1275.53553867634,0.210298288813667,716909,441739
1279.00507725312,0.210182911708344,722102,445057
1282.4703454714,0.2102912443443,727318,448160
1285.9313433312,0.210049274777546,731774,451157
1289.38807083251,0.209936969134346,735629,453651
1292.84052797532,0.210179272155626,739364,455700
1297.43716138587,0.210061955182059,744058,458717
1300.87965435887,0.210311131432615,747507,460579
1304.31787697338,0.210465400794741,749815,461837
1307.7518292294,0.210367099567109,752257,463446
1311.18151112693,0.210365068205806,754237,464668
1314.60692266597,0.210665724948825,756101,465494
1318.02806384652,0.210578303010473,757235,466286
1321.44493466858,0.210957079072509,758016,466360
1324.85753513215,0.211117598888826,758958,466767
1329.4010263037,0.211435940187292,759495,466755
1332.80366259745,0.21189897127926,759450,466230
1336.20202853272,0.212404929314401,759029,465429
1339.59612410949,0.213326189236827,758933,464384
1342.98594932777,0.213577892539908,757777,463408
1346.37150418756,0.214521495464145,756128,461396
1349.75278868886,0.215256658339597,754295,459499
1353.12980283167,0.215864505080368,751541,457181
1356.50254661599,0.216528756893337,749448,455211
1359.87102004182,0.217005049647695,746440,452887
1364.35567516305,0.218001883380814,743652,450161
1367.71418441907,0.218353145961691,741744,448643
1371.06842331659,0.219110859772252,738546,445930
1374.41839185563,0.219759232100399,734277,442691
1377.76409003617,0.220395469955858,728342,438470
1381.10551785823,0.220668839965907,722039,434402
1384.44267532179,0.222214505018885,716298,429417
1387.77556242686,0.223305051971281,710649,424962
1391.10417917344,0.225010359246894,705734,420369
1395.53569205567,0.227290166522513,699908,414716
1398.85434463244,0.229620318816387,696060,410229
1402.16872685072,0.23278603884119,692627,405241
1405.47883871051,0.236068791893587,689616,400441
1408.7846802118,0.239924544682241,687226,395526
1412.08625135461,0.243614902891141,684434,390586
1415.38355213892,0.247602617885665,681905,385586
1418.67658256475,0.251351013846818,680076,381247
1421.96534263208,0.2547671220745,678138,377182
1425.24983234092,0.258431958498818,676663,373199
1429.62250917284,0.262572114708608,674834,368659
1432.89703471187,0.264908081352877,674283,366382
1436.16728989241,0.267096135082502,672985,363839
1439.43327471445,0.268119711965963,671931,362414
1442.69498917801,0.268902083248281,671053,361289
1445.95243328308,0.269792134259465,670347,360170
1449.20560702965,0.270337302532067,668936,358961
1452.45451041774,0.27049921004225,667118,357852
1455.69914344733,0.270800996810278,664970,356452
1460.01867804025,0.27061716199763,662160,355096
1463.25334690003,0.270428401698008,659876,354025
1466.48374540132,0.270055210446936,657026,352799
1469.70987354412,0.269568921762603,653452,351273
1472.93173132843,0.269020812829793,650599,350181
1476.14931875425,0.268621981017242,647392,348775
1479.36263582158,0.267968630333171,643774,347348
1482.57168253042,0.267597868045469,639771,345483
1485.77645888076,0.266847552760561,635646,343849
1488.97696487262,0.266493684659076,632075,342196
1493.23766341522,0.266013504505,625321,338914
1496.42820523726,0.264658384151404,620498,337351
1499.61447670082,0.264113784124471,615622,335120
1502.79647780588,0.263398643773445,610169,332699
1505.97420855245,0.262833608205122,604934,330274
1509.14766894053,0.261719732119946,599336,328058
1512.31685897012,0.26100004961565,593379,325336
1515.48177864122,0.260597212215423,587047,322163
1518.64242795382,0.259134102746466,580576,319687
1522.84998425743,0.258683995238493,572179,315390
1526.00066940022,0.257778545472837,565509,312364
1529.14708418453,0.257067687715929,558493,308994
1532.28922861034,0.256762042438662,550832,304970
1535.42710267766,0.256193568085651,543100,301083
1538.5607063865,0.256197413052588,535204,296703
1541.69003973684,0.255247923341511,526472,292501
1544.81510272869,0.255384116748103,518364,287906
1547.93589536205,0.255303513432601,509827,283217
1551.05241763692,0.254742583008283,501255,278815
1555.2011378902,0.254227153962351,489811,272773
1558.30769599526,0.254767418398647,481575,267853
1561.40998374183,0.254460129522602,472677,263090
1564.5080011299,0.254004164043342,463769,258403
1567.60174815948,0.25364683376351,454475,253433
1570.69122483058,0.253477005550912,444863,248170
1573.77643114318,0.253532820136408,435447,242886
1576.85736709729,0.252731219408726,425922,238012
1579.93403269291,0.252674236295331,416587,232826
1584.0296107072,0.252135614084513,403967,226053
1587.09631213301,0.252093542872494,394763,220924
1590.15874320033,0.251942671027421,385750,215955
1593.21690390916,0.251271797044514,376032,210840
1596.27079425949,0.250408577360806,367199,206297
1599.32041425134,0.250149533738464,358219,201372
1602.36576388469,0.249526936585835,349103,196529
1605.40684315956,0.248801512459087,340111,191787
1608.44365207593,0.248109322904427,330968,186929
1611.47619063381,0.248008546818311,322283,182066
1615.51293259778,0.24633625068314,310318,175983
1618.53550698585,0.246601524670061,301592,170930
1621.55381101543,0.246556067038731,293295,166245
1624.56784468652,0.246537296660743,284488,161260
1627.57760799912,0.245726298258741,276139,156820
1630.58310095323,0.246056547805302,267605,151858
1633.58432354884,0.245251225489777,259194,147358
1636.58127578597,0.245150926639487,250862,142654
1639.5739576646,0.246128857385093,242823,137772
1643.55755738958,0.247119512500156,232176,131431
1646.5402750984,0.246704110323879,224307,127098
1649.51872244873,0.247115525384437,216270,122428
1652.49289944057,0.24877967312879,208264,117445
1655.46280607392,0.249635614152378,200658,112933
1658.42844234878,0.2505419701265,192805,108287
1661.38980826515,0.25224163315217,185571,103817
1664.34690382303,0.254419023366572,177516,98814
1667.29972902242,0.254692149975579,168859,93936
1670.24828386331,0.255817646852317,159911,88728
1674.17304753796,0.25704090464552,145634,80579
1677.11163820905,0.258401047636157,133494,73631
1680.04595852164,0.259067108750074,120331,66269
1682.97600847574,0.259709212522677,106534,58584
1685.90178807136,0.259425950410281,93002,51176
1688.82329730848,0.26287122733745,79933,43637
1691.74053618711,0.258551143878675,67997,37492
1694.65350470725,0.266249978888723,57821,31321
1697.56220286889,0.262860314024275,48788,26635
1701.43382430455,0.26236375658833,39381,21524
