***Scan Config Information***,,,,,,,***Reference Scan Information***,,,,,,,,
Scan Config Name:,herbario,,,,,,Scan Config Name:,Local New Reference,,,,,,,
Scan Config Type:,Slew,Num Section:,1,,,,Scan Config Type:,Slew,Num Section:,1,,,,,
Section Config Type:,Column,,,,,,Section Config Type:,Column,,,,,,,
Start Wavelength (nm):,900,,,,,,Start Wavelength (nm):,900,,,,,,,
End Wavelength (nm):,1700,,,,,,End Wavelength (nm):,1700,,,,,,,
Pattern Width (nm):,7.03,,,,,,Pattern Width (nm):,7.03,,,,,,,
Exposure (ms):,0.635,,,,,,Exposure (ms):,0.635,,,,,,,
Digital Resolution:,228,,,,,,Digital Resolution:,228,,,,,,,
Num Repeats:,20,,,,,,Num Repeats:,20,,,,,,,
PGA Gain:,64,(FixedPGA),,,,,PGA Gain:,64,(AutoPGA),,,,,,
System Temp (C):,41.19,,,,,,System Temp (C):,41.36,,,,,,,
Humidity (%):,18.28,,,,,,Humidity (%):,18.29,,,,,,,
Lamp Indicator:,1121,,,,,,Lamp Indicator:,1125,,,,,,,
Data Date-Time:,2023/11/10T18:51:26,,,,,,Data Date-Time:,2023/11/10T18:48:43,,,,,,,
Total Measurement Time in sec:,6.732633,,,,,,,,,,,,,,
,,,,,,,,,,,,,,,
***General Information***,,,,,,,***Calibration Coefficients***,,,,,,,,
Model Name:,NIR-S-G1,,,,,,Shift Vector Coefficients:,-5.08535400046452,0.0413457073195706,-8.39863846568903E-05,,,,,
Serial Number:,B07R011,(95UB122GC0AB07R011),,,,,Pixel to Wavelength Coefficients:,1794.37724621797,-0.920219689099738,-0.000237242138379873,,,,,
GUI Version:,3.9.4,Revision:,526,,,,Versions (Cal/Ref/Cfg):,1,3,1,,,,,
TIVA Version:,2.4.7,,,,,,***Lamp Usage ***,,,,,,,,
DLPC Version:,2.3.1,,,,,,Total Time(hh:mm:ss):,1hr 37min 57sec ,,,,,,,
UUID:,DE:67:0C:88:67:2B:47:21,,,,,,***Device/Error/Activation Status***,,,,,,,,
Main Board Version:,D,,,,,,Device Status:,0x00000001,Activation Status:,Activated,,,,,
Detector Board Version:,B,,,,,,Error status:,0x00000000,Error Code:,0x00000000000000000000000000000000,,,,,
,,,,,,,,,Error Details:,Not found,,,,,
***Scan Data***,,,,,,,,,,,,,,,
Wavelength (nm),Absorbance (AU),Reference Signal (unitless),Sample Signal (unitless)
901.81429527209,0.166395378944203,86018,58640
905.716563509274,0.165449563615349,93082,63594
909.614561387966,0.167170699512786,100830,68615
913.508288908168,0.165996656261183,109883,74978
917.397746069878,0.16685613239099,120694,82192
921.282932873098,0.167871273219734,133979,91026
925.163849317827,0.166970020725724,150180,102245
929.040495404065,0.165817048366599,168426,114972
932.912871131812,0.165965680079766,187694,128081
938.069395988934,0.165344889010172,211331,144417
941.931807546869,0.165423564648337,227627,155525
945.789948746314,0.165430365387438,241737,165163
949.643819587268,0.164760077662253,254347,174047
953.493420069731,0.164539665382185,265735,181932
957.338750193702,0.165198907146011,277072,189406
961.179809959184,0.165014143589466,288108,197034
965.016599366174,0.163774756693225,297941,204341
968.849118414673,0.164097332612337,308086,211142
973.952501032798,0.163949458476884,321106,220140
977.775055911486,0.164043751312032,330818,226749
981.593340431682,0.164167485968862,339454,232602
985.407354593388,0.16315972304699,347029,238345
989.217098396603,0.163566353907712,354568,243295
993.022571841327,0.163419616945901,360873,247705
996.823774927561,0.163626208206719,366375,251362
1000.6207076553,0.162997164496877,371569,255295
1004.41337002455,0.163012902627878,376406,258609
1008.20176203532,0.162763775265472,379917,261171
1013.24630860312,0.163138383757836,383675,263527
1017.02473644407,0.162711948210135,385822,265262
1020.79889392653,0.162282105557428,387261,266515
1024.5687810505,0.162031316911318,388783,267717
1028.33439781597,0.162057500703728,389033,267873
1032.09574422296,0.161964812880484,389146,268008
1035.85282027145,0.161959542165333,389709,268399
1039.60562596146,0.161865381392569,389655,268420
1043.35416129297,0.161646875154646,389533,268471
1048.34556562178,0.161414842476244,388974,268229
1052.08413678348,0.161142279566032,388743,268238
1055.81843758669,0.161311720290511,388496,267963
1059.54846803141,0.161196825318312,388228,267849
1063.27422811764,0.161164474220051,388373,267969
1066.99571784538,0.160733351582441,388367,268231
1070.71293721462,0.161581548139689,389148,268246
1074.42588622538,0.160761282658806,389950,269307
1078.13456487764,0.161046460725753,391345,270093
1081.83897317142,0.160873017130619,392934,271298
1086.77154144991,0.161215401840256,395092,272573
1090.46598557387,0.161375981142073,397345,274026
1094.15615933934,0.161191005478555,399992,275969
1097.84206274632,0.161245635707961,402237,277483
1101.52369579481,0.161260404442331,405192,279512
1105.20105848481,0.161188019223662,408432,281794
1108.87415081632,0.161705113277137,412024,283934
1112.54297278934,0.161481299218285,415194,286266
1116.20752440387,0.161867134347559,419063,288677
1121.08695044336,0.161635803996685,424449,292543
1124.74153788807,0.162358199960797,428863,295094
1128.3918549743,0.162903525305049,433597,297977
1132.03790170203,0.162767225424472,438065,301142
1135.67967807127,0.163656458738266,443021,303926
1139.31718408202,0.163577558604079,447833,307283
1142.95041973428,0.164086250032252,453205,310605
1146.57938502805,0.164328064683752,458262,313896
1150.20407996333,0.164728713788138,463361,317096
1153.82450454012,0.165118223149007,469317,320884
1158.6450945293,0.165454247248175,477394,326154
1162.25555493627,0.166156669319513,483191,329581
1165.86174498476,0.166865312618202,489782,333532
1169.46366467475,0.166856294068284,496371,338026
1173.06131400625,0.166946774001504,503285,342663
1176.65469297927,0.167463210597328,510429,347114
1180.24380159379,0.168104765124955,517438,351361
1183.82863984982,0.167679023815614,525086,356904
1187.40920774736,0.168781397538929,533521,361718
1192.17665549754,0.168777960326627,543632,368576
1195.74725922527,0.16882027040839,551916,374156
1199.3135925945,0.169146050504148,560715,379836
1202.87565560525,0.169194256100198,568726,385220
1206.43344825751,0.169130247801012,576947,390846
1209.98697055127,0.1689302596398,585847,397058
1213.53622248654,0.169030247389957,594242,402655
1217.08120406333,0.168876248239831,602945,408697
1220.62191528162,0.168568478416991,611238,414612
1224.15835614142,0.168471057237099,619287,420166
1228.86696784128,0.167948814429983,629837,427838
1232.39344453127,0.167879299428964,637683,433237
1235.91565086277,0.167800933147401,645400,438559
1239.43358683578,0.167356457639259,652089,443558
1242.94725245029,0.167280427847768,658823,448217
1246.45664770632,0.166994555732581,665593,453121
1249.96177260386,0.16692069377326,670930,456832
1253.4626271429,0.166878741624756,676588,460729
1256.95921132345,0.166657375349681,681991,464645
1261.61468078432,0.166624320769167,691291,471017
1265.10130079506,0.166631641293512,698462,475895
1268.58365044731,0.16635425949916,704898,480587
1272.06172974107,0.166348604246986,711096,484819
1275.53553867634,0.166252878428741,716909,488890
1279.00507725312,0.166018629966135,722102,492697
1282.4703454714,0.166050946630893,727318,496219
1285.9313433312,0.166197236502028,731774,499091
1289.38807083251,0.165827969269672,735629,502147
1292.84052797532,0.166151248116846,739364,504321
1297.43716138587,0.165914949226784,744058,507799
1300.87965435887,0.166215432815913,747507,509800
1304.31787697338,0.166054998634874,749815,511563
1307.7518292294,0.165918832615086,752257,513390
1311.18151112693,0.166185767178317,754237,514425
1314.60692266597,0.166148996525403,756101,515740
1318.02806384652,0.166483356442236,757235,516116
1321.44493466858,0.166601320167971,758016,516508
1324.85753513215,0.166754081759179,758958,516968
1329.4010263037,0.167036896105284,759495,516997
1332.80366259745,0.167509588845042,759450,516404
1336.20202853272,0.168073510326186,759029,515448
1339.59612410949,0.168665301172306,758933,514681
1342.98594932777,0.169339404804741,757777,513100
1346.37150418756,0.17008009278749,756128,511111
1349.75278868886,0.170612749686091,754295,509247
1353.12980283167,0.1712849210544,751541,506603
1356.50254661599,0.171758112116938,749448,504642
1359.87102004182,0.172415783425852,746440,501856
1364.35567516305,0.17326398271177,743652,499006
1367.71418441907,0.174144143790488,741744,496718
1371.06842331659,0.17435970396003,738546,494331
1374.41839185563,0.175195236973164,734277,490529
1377.76409003617,0.175537371793185,728342,486181
1381.10551785823,0.17615832963499,722039,481285
1384.44267532179,0.177239600297539,716298,476271
1387.77556242686,0.178154109692521,710649,471521
1391.10417917344,0.179513914956462,705734,466796
1395.53569205567,0.181752855175774,699908,460562
1398.85434463244,0.184143994418467,696060,455515
1402.16872685072,0.187131550319189,692627,450161
1405.47883871051,0.19026098156904,689616,444986
1408.7846802118,0.19358176613695,687226,440066
1412.08625135461,0.197255843852564,684434,434586
1415.38355213892,0.200920499847303,681905,429342
1418.67658256475,0.204796400192682,680076,424386
1421.96534263208,0.208008820837087,678138,420058
1425.24983234092,0.211524503185114,676663,415765
1429.62250917284,0.215125895025636,674834,411217
1432.89703471187,0.217875594643408,674283,408288
1436.16728989241,0.219909579618645,672985,405598
1439.43327471445,0.221156212387482,671931,403802
1442.69498917801,0.221819411618425,671053,402659
1445.95243328308,0.222857566708607,670347,401275
1449.20560702965,0.223201906731481,668936,400113
1452.45451041774,0.223462755501584,667118,398786
1455.69914344733,0.223283591750044,664970,397666
1460.01867804025,0.223636404971502,662160,395664
1463.25334690003,0.223439545495658,659876,394478
1466.48374540132,0.223288368350875,657026,392911
1469.70987354412,0.222491909034849,653452,391491
1472.93173132843,0.221943771809623,650599,390274
1476.14931875425,0.221471232536056,647392,388773
1479.36263582158,0.221012368147211,643774,387009
1482.57168253042,0.22028866667744,639771,385244
1485.77645888076,0.219575670235174,635646,383389
1488.97696487262,0.219051004570732,632075,381696
1493.23766341522,0.21842512755845,625321,378162
1496.42820523726,0.217434743132368,620498,376102
1499.61447670082,0.216857281082021,615622,373643
1502.79647780588,0.216015362463379,610169,371052
1505.97420855245,0.215073729568044,604934,368667
1509.14766894053,0.214954121147093,599336,365356
1512.31685897012,0.214064897169576,593379,362466
1515.48177864122,0.213277305095808,587047,359249
1518.64242795382,0.21253353143493,580576,355898
1522.84998425743,0.211904453771216,572179,351259
1526.00066940022,0.211777256417463,565509,347266
1529.14708418453,0.211077085445443,558493,343511
1532.28922861034,0.210909150577987,550832,338930
1535.42710267766,0.210309738066372,543100,334634
1538.5607063865,0.21035957088956,535204,329731
1541.69003973684,0.209863565337696,526472,324722
1544.81510272869,0.209904422370846,518364,319691
1547.93589536205,0.209749710620615,509827,314538
1551.05241763692,0.209339133409559,501255,309542
1555.2011378902,0.208858320918636,489811,302810
1558.30769599526,0.209607821846361,481575,297205
1561.40998374183,0.208854534054544,472677,292220
1564.5080011299,0.208766484696954,463769,286771
1567.60174815948,0.209043301959371,454475,280845
1570.69122483058,0.208404299827412,444863,275310
1573.77643114318,0.208470009347994,435447,269442
1576.85736709729,0.207661993843204,425922,264039
1579.93403269291,0.208631743094253,416587,257676
1584.0296107072,0.208082885485081,403967,250186
1587.09631213301,0.207872885973385,394763,244604
1590.15874320033,0.207214443612883,385750,239382
1593.21690390916,0.2068207596768,376032,233563
1596.27079425949,0.206243421188867,367199,228380
1599.32041425134,0.205614008863512,358219,223118
1602.36576388469,0.20523681442978,349103,217629
1605.40684315956,0.204372119808421,340111,212446
1608.44365207593,0.204308979822349,330968,206765
1611.47619063381,0.204229687592288,322283,201376
1615.51293259778,0.203264882077857,310318,194331
1618.53550698585,0.20290516568846,301592,189023
1621.55381101543,0.202309850180539,293295,184075
1624.56784468652,0.201492454611257,284488,178884
1627.57760799912,0.201983490957866,276139,173438
1630.58310095323,0.201193401570751,267605,168384
1633.58432354884,0.201176308461039,259194,163098
1636.58127578597,0.201796004809731,250862,157630
1639.5739576646,0.201544648852481,242823,152667
1643.55755738958,0.202539636484922,232176,145639
1646.5402750984,0.203147956693293,224307,140506
1649.51872244873,0.202964046343411,216270,135529
1652.49289944057,0.20485128978258,208264,129946
1655.46280607392,0.205595109926582,200658,124986
1658.42844234878,0.205893618919985,192805,120012
1661.38980826515,0.208590918917144,185571,114794
1664.34690382303,0.208192392774121,177516,109912
1667.29972902242,0.209631487405813,168859,104206
1670.24828386331,0.210014638224894,159911,98597
1674.17304753796,0.210300910909868,145634,89735
1677.11163820905,0.211859796679678,133494,81960
1680.04595852164,0.21155681968419,120331,73930
1682.97600847574,0.21172458864333,106534,65428
1685.90178807136,0.214557034398286,93002,56746
1688.82329730848,0.211061236153968,79933,49166
1691.74053618711,0.213208546367723,67997,41618
1694.65350470725,0.21380676438458,57821,35341
1697.56220286889,0.213645203043451,48788,29831
1701.43382430455,0.216543721149767,39381,23919
