***Scan Config Information***,,,,,,,***Reference Scan Information***,,,,,,,,
Scan Config Name:,herbario,,,,,,Scan Config Name:,Local New Reference,,,,,,,
Scan Config Type:,Slew,Num Section:,1,,,,Scan Config Type:,Slew,Num Section:,1,,,,,
Section Config Type:,Column,,,,,,Section Config Type:,Column,,,,,,,
Start Wavelength (nm):,900,,,,,,Start Wavelength (nm):,900,,,,,,,
End Wavelength (nm):,1700,,,,,,End Wavelength (nm):,1700,,,,,,,
Pattern Width (nm):,7.03,,,,,,Pattern Width (nm):,7.03,,,,,,,
Exposure (ms):,0.635,,,,,,Exposure (ms):,0.635,,,,,,,
Digital Resolution:,228,,,,,,Digital Resolution:,228,,,,,,,
Num Repeats:,20,,,,,,Num Repeats:,20,,,,,,,
PGA Gain:,64,(FixedPGA),,,,,PGA Gain:,64,(AutoPGA),,,,,,
System Temp (C):,42.19,,,,,,System Temp (C):,41.95,,,,,,,
Humidity (%):,21.6,,,,,,Humidity (%):,21.69,,,,,,,
Lamp Indicator:,1129,,,,,,Lamp Indicator:,1130,,,,,,,
Data Date-Time:,2023/11/10T15:24:38,,,,,,Data Date-Time:,2023/11/10T15:22:04,,,,,,,
Total Measurement Time in sec:,6.724311,,,,,,,,,,,,,,
,,,,,,,,,,,,,,,
***General Information***,,,,,,,***Calibration Coefficients***,,,,,,,,
Model Name:,NIR-S-G1,,,,,,Shift Vector Coefficients:,-5.08535400046452,0.0413457073195706,-8.39863846568903E-05,,,,,
Serial Number:,B07R011,(95UB122GC0AB07R011),,,,,Pixel to Wavelength Coefficients:,1794.37724621797,-0.920219689099738,-0.000237242138379873,,,,,
GUI Version:,3.9.4,Revision:,526,,,,Versions (Cal/Ref/Cfg):,1,3,1,,,,,
TIVA Version:,2.4.7,,,,,,***Lamp Usage ***,,,,,,,,
DLPC Version:,2.3.1,,,,,,Total Time(hh:mm:ss):,1hr 10min 36sec ,,,,,,,
UUID:,DE:67:0C:88:67:2B:47:21,,,,,,***Device/Error/Activation Status***,,,,,,,,
Main Board Version:,D,,,,,,Device Status:,0x00000001,Activation Status:,Activated,,,,,
Detector Board Version:,B,,,,,,Error status:,0x00000000,Error Code:,0x00000000000000000000000000000000,,,,,
,,,,,,,,,Error Details:,Not found,,,,,
***Scan Data***,,,,,,,,,,,,,,,
Wavelength (nm),Absorbance (AU),Reference Signal (unitless),Sample Signal (unitless)
901.81429527209,0.200831498996217,87044,54816
905.716563509274,0.197567685408212,94490,59954
909.614561387966,0.195378157713619,102180,65161
913.508288908168,0.195540902431938,111436,71037
917.397746069878,0.19446370408738,122508,78289
921.282932873098,0.190104835076119,135596,87527
925.163849317827,0.188736064319871,152112,98498
929.040495404065,0.187219135027461,170729,110940
932.912871131812,0.186158275863819,190193,123890
938.069395988934,0.183931636487036,214212,140253
941.931807546869,0.182212651793046,230599,151581
945.789948746314,0.180680321265702,244837,161509
949.643819587268,0.180140879230794,257616,170150
953.493420069731,0.17865245381599,269047,178310
957.338750193702,0.178397186247811,280520,186023
961.179809959184,0.17753473489018,291573,193737
965.016599366174,0.176596491202772,301893,201028
968.849118414673,0.175345419008798,311839,208250
973.952501032798,0.174616238377477,325090,217464
977.775055911486,0.174377609202197,334883,224138
981.593340431682,0.172699691948804,343306,230665
985.407354593388,0.172396177305153,351160,236107
989.217098396603,0.171836473702464,358806,241559
993.022571841327,0.170947996115399,365225,246384
996.823774927561,0.170114834102016,370480,250409
1000.6207076553,0.169702587030692,376505,254723
1004.41337002455,0.168099410826769,380702,258515
1008.20176203532,0.167419113963817,384376,261419
1013.24630860312,0.166243090700355,387394,264186
1017.02473644407,0.166004715865509,390051,266144
1020.79889392653,0.165119813376311,391878,267936
1024.5687810505,0.164680378191974,393254,269149
1028.33439781597,0.163762408571132,393523,269903
1032.09574422296,0.163354807416012,393770,270326
1035.85282027145,0.16229970202651,393977,271126
1039.60562596146,0.162295793834407,394065,271189
1043.35416129297,0.161604806360173,393955,271545
1048.34556562178,0.160333656880179,393226,271837
1052.08413678348,0.160010453610541,393211,272029
1055.81843758669,0.15968156587559,393000,272089
1059.54846803141,0.158972956123491,392665,272301
1063.27422811764,0.158307897621411,392630,272694
1066.99571784538,0.157813178738825,392718,273066
1070.71293721462,0.157686711622071,393462,273663
1074.42588622538,0.157243881534037,394414,274605
1078.13456487764,0.15692749189439,395773,275752
1081.83897317142,0.156433111535705,397714,277420
1086.77154144991,0.156190801703808,399607,278896
1090.46598557387,0.155462118181435,401868,280945
1094.15615933934,0.15455278497778,404419,283321
1097.84206274632,0.154888235768048,406850,284804
1101.52369579481,0.154532846796013,409783,287092
1105.20105848481,0.154264723227912,413092,289589
1108.87415081632,0.153791456228774,416971,292627
1112.54297278934,0.153916596188815,420120,294752
1116.20752440387,0.153994815455713,424002,297422
1121.08695044336,0.153580270713779,429377,301480
1124.74153788807,0.153547810106614,433707,304543
1128.3918549743,0.153765638678005,438675,307877
1132.03790170203,0.15428729434339,443402,310821
1135.67967807127,0.154903620547562,448346,313841
1139.31718408202,0.154530683176331,452827,317250
1142.95041973428,0.154710237738017,458122,320827
1146.57938502805,0.15559829107052,463773,324121
1150.20407996333,0.156151895811359,468793,327212
1153.82450454012,0.156716558692509,474837,331000
1158.6450945293,0.157719414697894,483022,335929
1162.25555493627,0.158548790585433,488999,339437
1165.86174498476,0.159240798873927,495562,343445
1169.46366467475,0.159714775110395,502222,347681
1173.06131400625,0.160212567858484,509135,352063
1176.65469297927,0.16136623612326,516398,356138
1180.24380159379,0.161624149966789,523296,360681
1183.82863984982,0.162189737728729,531416,365801
1187.40920774736,0.162455118064585,539150,370898
1192.17665549754,0.163098270566253,549927,377752
1195.74725922527,0.163656754165161,558076,382857
1199.3135925945,0.163778659677637,566602,388597
1202.87565560525,0.163584941691395,574849,394429
1206.43344825751,0.163790313655206,583193,399965
1209.98697055127,0.163131211072679,592133,406713
1213.53622248654,0.162585356158866,600989,413315
1217.08120406333,0.161890543303064,609453,419807
1220.62191528162,0.161021353473801,617778,426394
1224.15835614142,0.160161402840872,626150,433029
1228.86696784128,0.159132410569632,636777,441423
1232.39344453127,0.158777192263077,644785,447340
1235.91565086277,0.157865471695441,651968,453274
1239.43358683578,0.157776935458265,659441,458563
1242.94725245029,0.157167763291415,666020,463788
1246.45664770632,0.156968441067261,672643,468615
1249.96177260386,0.156509953707936,678086,472906
1253.4626271429,0.156231868751875,683742,477156
1256.95921132345,0.155889863968417,689090,481267
1261.61468078432,0.155375629293511,698776,488610
1265.10130079506,0.155606590811271,705757,493229
1268.58365044731,0.155432520821314,712580,498197
1272.06172974107,0.155271628516336,718793,502727
1275.53553867634,0.155120246427012,724667,507012
1279.00507725312,0.154978214363679,729881,510827
1282.4703454714,0.154939603894377,735098,514524
1285.9313433312,0.154618339623341,739791,518192
1289.38807083251,0.154413064655171,743611,521114
1292.84052797532,0.154278891716767,747173,523772
1297.43716138587,0.154335825303165,752166,527203
1300.87965435887,0.154256664459774,755140,529384
1304.31787697338,0.154197347420141,757771,531301
1307.7518292294,0.154351171473011,760191,532809
1311.18151112693,0.154534276517063,762203,533994
1314.60692266597,0.15456013741739,763830,535102
1318.02806384652,0.154687610656052,764811,535632
1321.44493466858,0.154932101510397,765736,535978
1324.85753513215,0.155252510003132,766477,536101
1329.4010263037,0.156008118555822,767024,535551
1332.80366259745,0.156674407026997,766882,534631
1336.20202853272,0.157634859747218,766895,533459
1339.59612410949,0.158508417961603,766542,532142
1342.98594932777,0.159650592754552,765311,529892
1346.37150418756,0.160946564691513,763390,526987
1349.75278868886,0.162290482249483,761558,524098
1353.12980283167,0.163703534099905,758904,520575
1356.50254661599,0.164816650633612,756654,517703
1359.87102004182,0.165870364860469,753540,514323
1364.35567516305,0.167749219375583,750596,510102
1367.71418441907,0.168985907759794,748640,507326
1371.06842331659,0.170191701155728,745782,503988
1374.41839185563,0.171913380720711,741025,498792
1377.76409003617,0.173239662066344,734936,493185
1381.10551785823,0.175362615588242,728633,486571
1384.44267532179,0.177942204903431,722920,479897
1387.77556242686,0.180909274007651,717330,472944
1391.10417917344,0.184102727386678,712141,466083
1395.53569205567,0.18932815869422,706296,456729
1398.85434463244,0.194404853368925,702511,449002
1402.16872685072,0.200627550541472,699055,440437
1405.47883871051,0.207745938557242,696269,431550
1408.7846802118,0.215240641218627,693361,422395
1412.08625135461,0.223406413240138,690738,412959
1415.38355213892,0.231119402189229,688297,404256
1418.67658256475,0.238362155263489,686363,396453
1421.96534263208,0.244596228001955,684716,389865
1425.24983234092,0.250877807021381,683366,383509
1429.62250917284,0.257767072516867,681660,376531
1432.89703471187,0.262025974678334,680732,372349
1436.16728989241,0.265518853365223,679257,368566
1439.43327471445,0.268265994610765,678530,365850
1442.69498917801,0.269763168864822,677607,364095
1445.95243328308,0.271339371821988,676774,362330
1449.20560702965,0.271661848401381,675686,361479
1452.45451041774,0.272187302392671,673577,359915
1455.69914344733,0.272064714111076,671486,358899
1460.01867804025,0.271203942831882,668573,358051
1463.25334690003,0.270473716777333,665938,357240
1466.48374540132,0.269673018634478,662873,356252
1469.70987354412,0.268851141638916,659874,355312
1472.93173132843,0.267236493405095,656872,355013
1476.14931875425,0.265858800745202,653565,354348
1479.36263582158,0.26405837650991,649884,353816
1482.57168253042,0.262820857421595,645760,352574
1485.77645888076,0.261322983255211,641757,351599
1488.97696487262,0.259452422040409,637285,350656
1493.23766341522,0.257773859356592,631061,348576
1496.42820523726,0.256162732517715,626549,347370
1499.61447670082,0.254510986935446,621425,345842
1502.79647780588,0.252831137482275,616112,344214
1505.97420855245,0.251445943752331,610537,342189
1509.14766894053,0.249904119325751,604878,340223
1512.31685897012,0.248592213106164,598780,337812
1515.48177864122,0.246877248369521,592197,335420
1518.64242795382,0.245426085146415,586206,333138
1522.84998425743,0.243797304966919,577080,329184
1526.00066940022,0.242191230824542,570379,326567
1529.14708418453,0.241193523269818,563236,323219
1532.28922861034,0.240237866222808,555462,319460
1535.42710267766,0.23857720637602,547562,316123
1538.5607063865,0.238131229542784,539717,311914
1541.69003973684,0.237944681643639,531472,307281
1544.81510272869,0.237198263559678,522995,302900
1547.93589536205,0.235990328822901,514414,298760
1551.05241763692,0.235348734222706,505739,294156
1555.2011378902,0.234499959161904,494039,287913
1558.30769599526,0.233826662487376,485468,283357
1561.40998374183,0.233082194995056,476444,278567
1564.5080011299,0.232684899382074,467743,273730
1567.60174815948,0.232235111418879,457971,268289
1570.69122483058,0.231411712628865,448508,263244
1573.77643114318,0.231306556225345,439065,257764
1576.85736709729,0.230181791757855,429562,252839
1579.93403269291,0.229716349257649,419788,247351
1584.0296107072,0.229850958480885,407386,239969
1587.09631213301,0.227892568657426,397708,235327
1590.15874320033,0.227804591514627,388809,230108
1593.21690390916,0.226664910626551,378902,224834
1596.27079425949,0.225911091976016,370057,219967
1599.32041425134,0.225493892356319,361325,214983
1602.36576388469,0.224247967766146,352140,210120
1605.40684315956,0.22298083928914,342637,205047
1608.44365207593,0.222522659548919,333649,199879
1611.47619063381,0.221829581440184,324744,194855
1615.51293259778,0.220961330527594,313053,188216
1618.53550698585,0.220245473230713,304087,183127
1621.55381101543,0.21926891658113,295347,178264
1624.56784468652,0.219286310007925,286599,172977
1627.57760799912,0.219560033188093,278268,167843
1630.58310095323,0.219005191944113,269599,162822
1633.58432354884,0.219114721170686,261222,157723
1636.58127578597,0.21962172532336,252865,152499
1639.5739576646,0.219230553003519,244591,147642
1643.55755738958,0.221194788350637,234029,140629
1646.5402750984,0.220855490196428,225650,135700
1649.51872244873,0.222411690853636,217954,130603
1652.49289944057,0.223974217751103,209950,125355
1655.46280607392,0.225128413515652,202040,120312
1658.42844234878,0.226564018829093,194470,115422
1661.38980826515,0.228864354470806,186717,110235
1664.34690382303,0.229753289494673,178973,105447
1667.29972902242,0.23015543357964,170264,100223
1670.24828386331,0.231878688987115,161497,94686
1674.17304753796,0.233003081135193,147035,85984
1677.11163820905,0.234612362589088,134799,78537
1680.04595852164,0.237634224398807,121960,70564
1682.97600847574,0.237401839333753,108058,62554
1685.90178807136,0.237525358040011,94134,54478
1688.82329730848,0.240323999862698,81035,46596
1691.74053618711,0.24307402812287,69409,39659
1694.65350470725,0.241920648358843,58710,33635
1697.56220286889,0.244214177160364,49640,28289
1701.43382430455,0.248958092335562,40162,22639
