***Scan Config Information***,,,,,,,***Reference Scan Information***,,,,,,,,
Scan Config Name:,herbario,,,,,,Scan Config Name:,Local New Reference,,,,,,,
Scan Config Type:,Slew,Num Section:,1,,,,Scan Config Type:,Slew,Num Section:,1,,,,,
Section Config Type:,Column,,,,,,Section Config Type:,Column,,,,,,,
Start Wavelength (nm):,900,,,,,,Start Wavelength (nm):,900,,,,,,,
End Wavelength (nm):,1700,,,,,,End Wavelength (nm):,1700,,,,,,,
Pattern Width (nm):,7.03,,,,,,Pattern Width (nm):,7.03,,,,,,,
Exposure (ms):,0.635,,,,,,Exposure (ms):,0.635,,,,,,,
Digital Resolution:,228,,,,,,Digital Resolution:,228,,,,,,,
Num Repeats:,20,,,,,,Num Repeats:,20,,,,,,,
PGA Gain:,64,(FixedPGA),,,,,PGA Gain:,64,(AutoPGA),,,,,,
System Temp (C):,40.69,,,,,,System Temp (C):,40.62,,,,,,,
Humidity (%):,26.8,,,,,,Humidity (%):,26.89,,,,,,,
Lamp Indicator:,1113,,,,,,Lamp Indicator:,1117,,,,,,,
Data Date-Time:,2023/11/10T13:49:54,,,,,,Data Date-Time:,2023/11/10T13:49:29,,,,,,,
Total Measurement Time in sec:,6.7655976,,,,,,,,,,,,,,
,,,,,,,,,,,,,,,
***General Information***,,,,,,,***Calibration Coefficients***,,,,,,,,
Model Name:,NIR-S-G1,,,,,,Shift Vector Coefficients:,-5.08535400046452,0.0413457073195706,-8.39863846568903E-05,,,,,
Serial Number:,B07R011,(95UB122GC0AB07R011),,,,,Pixel to Wavelength Coefficients:,1794.37724621797,-0.920219689099738,-0.000237242138379873,,,,,
GUI Version:,3.9.4,Revision:,526,,,,Versions (Cal/Ref/Cfg):,1,3,1,,,,,
TIVA Version:,2.4.7,,,,,,***Lamp Usage ***,,,,,,,,
DLPC Version:,2.3.1,,,,,,Total Time(hh:mm:ss):,54min 51sec ,,,,,,,
UUID:,DE:67:0C:88:67:2B:47:21,,,,,,***Device/Error/Activation Status***,,,,,,,,
Main Board Version:,D,,,,,,Device Status:,0x00000001,Activation Status:,Activated,,,,,
Detector Board Version:,B,,,,,,Error status:,0x00000000,Error Code:,0x00000000000000000000000000000000,,,,,
,,,,,,,,,Error Details:,Not found,,,,,
***Scan Data***,,,,,,,,,,,,,,,
Wavelength (nm),Absorbance (AU),Reference Signal (unitless),Sample Signal (unitless)
901.81429527209,0.207455338055087,87079,54008
905.716563509274,0.203240901553378,94166,58973
909.614561387966,0.203668564038106,101926,63770
913.508288908168,0.204079310029602,111044,69409
917.397746069878,0.201940242854263,121948,76601
921.282932873098,0.202007741930894,135700,85226
925.163849317827,0.200060147829863,151960,95867
929.040495404065,0.200779081434183,170647,107478
932.912871131812,0.199170517865901,190128,120192
938.069395988934,0.198228563654985,214425,135846
941.931807546869,0.198060973256588,230149,145864
945.789948746314,0.196772909215131,244274,155276
949.643819587268,0.196404602322367,256761,163352
953.493420069731,0.19663648129106,268539,170754
957.338750193702,0.196244995884787,279896,178136
961.179809959184,0.195741673316743,290743,185254
965.016599366174,0.195724064402764,300998,191796
968.849118414673,0.194562095266982,310959,198674
973.952501032798,0.194237901624651,323960,207135
977.775055911486,0.194605017046484,334083,213427
981.593340431682,0.194151274770402,342569,219077
985.407354593388,0.193384869199677,350316,224427
989.217098396603,0.193205195034694,357829,229335
993.022571841327,0.193233467357817,364175,233387
996.823774927561,0.193297436933718,369644,236857
1000.6207076553,0.192846228571703,375373,240778
1004.41337002455,0.192631051378969,379815,243748
1008.20176203532,0.192467248934313,383245,246042
1013.24630860312,0.192055446649559,386864,248601
1017.02473644407,0.191816801278988,388958,250084
1020.79889392653,0.190911978052062,390638,251688
1024.5687810505,0.19118261460048,392155,252508
1028.33439781597,0.191023838840932,392510,252829
1032.09574422296,0.19096939691069,392734,253005
1035.85282027145,0.190131597622605,393074,253713
1039.60562596146,0.189771376376049,392906,253815
1043.35416129297,0.189683009114241,393035,253950
1048.34556562178,0.189336725134349,392281,253665
1052.08413678348,0.188780622786023,392091,253867
1055.81843758669,0.188932995848368,391745,253554
1059.54846803141,0.188446196068726,391729,253828
1063.27422811764,0.188168499741851,391639,253932
1066.99571784538,0.187726280343714,391584,254155
1070.71293721462,0.188031251038289,392391,254500
1074.42588622538,0.187838046750859,393454,255303
1078.13456487764,0.187190407659309,394762,256534
1081.83897317142,0.187325093714645,396316,257464
1086.77154144991,0.186998634732558,398530,259097
1090.46598557387,0.187326812462384,400994,260502
1094.15615933934,0.187280318277339,403720,262301
1097.84206274632,0.187036203639832,405979,263917
1101.52369579481,0.186709932610861,408733,265907
1105.20105848481,0.187303353090449,412318,267873
1108.87415081632,0.187359864860115,415977,270215
1112.54297278934,0.187473645788175,419372,272349
1116.20752440387,0.187214013890259,422864,274781
1121.08695044336,0.187387629739897,428580,278384
1124.74153788807,0.188055300303576,433034,280845
1128.3918549743,0.188132737828039,437784,283875
1132.03790170203,0.188293722544408,442519,286839
1135.67967807127,0.188409590260865,447265,289838
1139.31718408202,0.188705073120525,452236,292860
1142.95041973428,0.189149258101145,457585,296021
1146.57938502805,0.189101283231377,462788,299420
1150.20407996333,0.190199377355673,468289,302214
1153.82450454012,0.190418690184442,474071,305791
1158.6450945293,0.190783309918373,482280,310825
1162.25555493627,0.191292431988017,488160,314246
1165.86174498476,0.192121463741077,494674,317832
1169.46366467475,0.191878308829398,501439,322359
1173.06131400625,0.192138620294177,508448,326669
1176.65469297927,0.192343414951772,515608,331113
1180.24380159379,0.192664300279207,522690,335413
1183.82863984982,0.192763322251244,530584,340401
1187.40920774736,0.193059351808805,538846,345466
1192.17665549754,0.193051313765813,549188,352103
1195.74725922527,0.193448748642164,557723,357248
1199.3135925945,0.193579774206467,566207,362573
1202.87565560525,0.193453540689677,574643,368082
1206.43344825751,0.193341071160859,582835,373426
1209.98697055127,0.193331959874798,592014,379315
1213.53622248654,0.193287966324224,600801,384984
1217.08120406333,0.192730038392097,608898,390674
1220.62191528162,0.192139452902619,617414,396677
1224.15835614142,0.191964407677526,625867,402270
1228.86696784128,0.191341460368657,636507,409696
1232.39344453127,0.191129285882634,644420,414992
1235.91565086277,0.190973332684101,651888,419952
1239.43358683578,0.190479747326621,658818,424899
1242.94725245029,0.190333851394614,665595,429414
1246.45664770632,0.190361668677546,672393,433772
1249.96177260386,0.190137656997291,677898,437549
1253.4626271429,0.189996410858523,683261,441154
1256.95921132345,0.189699271848168,688785,445025
1261.61468078432,0.189634110973331,698301,451241
1265.10130079506,0.18956490739149,705482,455954
1268.58365044731,0.189546980702704,712160,460289
1272.06172974107,0.189502379147261,718504,464437
1275.53553867634,0.18945280383655,724413,468310
1279.00507725312,0.189307805167726,729670,471866
1282.4703454714,0.189187317121369,734733,475272
1285.9313433312,0.189157699906683,739410,478330
1289.38807083251,0.188850328083239,743209,481128
1292.84052797532,0.188944493267003,746828,483366
1297.43716138587,0.188957817730311,751684,486494
1300.87965435887,0.188720486627586,754646,488678
1304.31787697338,0.18882255630206,757389,490339
1307.7518292294,0.188986018652987,759567,491564
1311.18151112693,0.189295777747652,761680,492580
1314.60692266597,0.18930727101859,763630,493828
1318.02806384652,0.189462453997197,764582,494267
1321.44493466858,0.189427377943156,765504,494903
1324.85753513215,0.189755738587201,766535,495195
1329.4010263037,0.190394062317852,767123,494847
1332.80366259745,0.190795439926744,766982,494299
1336.20202853272,0.191271397598447,766425,493399
1339.59612410949,0.192089383395752,766172,492308
1342.98594932777,0.19262833915953,765132,491030
1346.37150418756,0.193353063756875,763154,488944
1349.75278868886,0.19419453103731,761203,486750
1353.12980283167,0.194903836985656,758514,484239
1356.50254661599,0.195586175800423,755830,481768
1359.87102004182,0.196458069604235,752963,478978
1364.35567516305,0.19746161172632,750052,476025
1367.71418441907,0.197807181811576,748085,474399
1371.06842331659,0.198573886726634,745535,471948
1374.41839185563,0.199533461073834,740655,467824
1377.76409003617,0.19963534501545,734333,463722
1381.10551785823,0.200733117539475,728468,458857
1384.44267532179,0.201735922060531,722487,454040
1387.77556242686,0.203175304260996,716946,449067
1391.10417917344,0.205010043653166,712045,444117
1395.53569205567,0.207449201674815,706030,437899
1398.85434463244,0.210218452408797,702490,432934
1402.16872685072,0.213661233123783,699007,427386
1405.47883871051,0.216793945268768,695987,422481
1408.7846802118,0.220668026440067,693502,417234
1412.08625135461,0.224296033798923,690723,412105
1415.38355213892,0.22802394684364,688279,407137
1418.67658256475,0.231669624321999,686505,402693
1421.96534263208,0.234968501683607,685035,398790
1425.24983234092,0.23787433185758,683500,395243
1429.62250917284,0.240619378221428,681501,391604
1432.89703471187,0.242350803118469,680687,389580
1436.16728989241,0.243866756891229,679308,387436
1439.43327471445,0.245095441187674,678887,386102
1442.69498917801,0.245525565220575,677511,384938
1445.95243328308,0.245823230765517,676681,384203
1449.20560702965,0.246343476098523,675667,383168
1452.45451041774,0.246384002853923,673508,381908
1455.69914344733,0.246708209564444,671519,380496
1460.01867804025,0.246996836166338,668474,378519
1463.25334690003,0.246711221101868,666162,377458
1466.48374540132,0.246504326895365,663301,376016
1469.70987354412,0.246182443077938,659924,374379
1472.93173132843,0.245879778700808,656704,372812
1476.14931875425,0.24549005280888,653681,371429
1479.36263582158,0.244969665503926,649641,369576
1482.57168253042,0.24438141890237,646118,368070
1485.77645888076,0.24356064762903,641732,366263
1488.97696487262,0.243085535211322,637943,364499
1493.23766341522,0.242008374697713,631181,361531
1496.42820523726,0.241666476923326,626590,359184
1499.61447670082,0.240940992796666,621549,356890
1502.79647780588,0.239874523446681,616239,354711
1505.97420855245,0.238945146440533,610716,352285
1509.14766894053,0.238074930957371,605035,349708
1512.31685897012,0.237647850215263,599020,346572
1515.48177864122,0.237065791061344,592437,343223
1518.64242795382,0.235848389433179,586293,340617
1522.84998425743,0.234980258041065,577270,336046
1526.00066940022,0.234095820725314,570524,332796
1529.14708418453,0.23384840057449,563445,328854
1532.28922861034,0.233185872991474,555661,324806
1535.42710267766,0.233075738967394,548123,320481
1538.5607063865,0.23285504072932,540111,315957
1541.69003973684,0.232214087523893,531705,311499
1544.81510272869,0.231958355331196,523120,306650
1547.93589536205,0.231888091245112,514792,301817
1551.05241763692,0.231132513212686,505789,297055
1555.2011378902,0.23136576012839,494340,290175
1558.30769599526,0.230795203043951,485681,285467
1561.40998374183,0.230703553129534,476849,280335
1564.5080011299,0.230490885391177,467807,275154
1567.60174815948,0.230354288974239,458419,269717
1570.69122483058,0.230730967075771,448998,263945
1573.77643114318,0.230415211385866,439302,258433
1576.85736709729,0.229953222245324,429932,253190
1579.93403269291,0.22976334170818,419976,247435
1584.0296107072,0.229479662723587,407601,240301
1587.09631213301,0.229578188151382,398067,234627
1590.15874320033,0.228207894750521,388925,229963
1593.21690390916,0.228726732332749,379276,223990
1596.27079425949,0.22796546924506,370287,219065
1599.32041425134,0.2278408665406,361245,213777
1602.36576388469,0.227518023639491,352169,208561
1605.40684315956,0.226665728115214,343118,203600
1608.44365207593,0.225814348020373,333826,198475
1611.47619063381,0.226156067058647,324925,193031
1615.51293259778,0.225590798436652,312960,186165
1618.53550698585,0.225237344920591,304248,181130
1621.55381101543,0.225376371662111,295724,175999
1624.56784468652,0.225226077249742,286842,170772
1627.57760799912,0.224895059236043,278547,165960
1630.58310095323,0.225002061538188,269681,160638
1633.58432354884,0.224874646278071,261264,155670
1636.58127578597,0.224863006761456,252968,150731
1639.5739576646,0.224577210826771,244565,145820
1643.55755738958,0.225626723740081,233758,139040
1646.5402750984,0.226483318685739,225598,133922
1649.51872244873,0.226630311033823,217756,129223
1652.49289944057,0.228264730832265,209641,123940
1655.46280607392,0.229303689082603,202047,119165
1658.42844234878,0.229227125721816,194232,114576
1661.38980826515,0.230948938090898,186761,109733
1664.34690382303,0.23216519362938,178420,104539
1667.29972902242,0.232413918134039,169526,99271
1670.24828386331,0.232187883267687,160081,93789
1674.17304753796,0.232245486627433,144930,84901
1677.11163820905,0.235308900213213,132502,77075
1680.04595852164,0.235468598179787,118999,69195
1682.97600847574,0.233869810984326,104640,61070
1685.90178807136,0.238429701595862,91281,52717
1688.82329730848,0.236054230858985,77988,45287
1691.74053618711,0.239261748952127,66528,38348
1694.65350470725,0.233702125170657,56306,32874
1697.56220286889,0.237481097634656,47641,27574
1701.43382430455,0.239617435414674,38382,22106
