***Scan Config Information***,,,,,,,***Reference Scan Information***,,,,,,,,
Scan Config Name:,herbario,,,,,,Scan Config Name:,Local New Reference,,,,,,,
Scan Config Type:,Slew,Num Section:,1,,,,Scan Config Type:,Slew,Num Section:,1,,,,,
Section Config Type:,Column,,,,,,Section Config Type:,Column,,,,,,,
Start Wavelength (nm):,900,,,,,,Start Wavelength (nm):,900,,,,,,,
End Wavelength (nm):,1700,,,,,,End Wavelength (nm):,1700,,,,,,,
Pattern Width (nm):,7.03,,,,,,Pattern Width (nm):,7.03,,,,,,,
Exposure (ms):,0.635,,,,,,Exposure (ms):,0.635,,,,,,,
Digital Resolution:,228,,,,,,Digital Resolution:,228,,,,,,,
Num Repeats:,20,,,,,,Num Repeats:,20,,,,,,,
PGA Gain:,64,(FixedPGA),,,,,PGA Gain:,64,(AutoPGA),,,,,,
System Temp (C):,40.86,,,,,,System Temp (C):,40.62,,,,,,,
Humidity (%):,26.56,,,,,,Humidity (%):,26.89,,,,,,,
Lamp Indicator:,1118,,,,,,Lamp Indicator:,1117,,,,,,,
Data Date-Time:,2023/11/10T13:51:01,,,,,,Data Date-Time:,2023/11/10T13:49:29,,,,,,,
Total Measurement Time in sec:,6.787129,,,,,,,,,,,,,,
,,,,,,,,,,,,,,,
***General Information***,,,,,,,***Calibration Coefficients***,,,,,,,,
Model Name:,NIR-S-G1,,,,,,Shift Vector Coefficients:,-5.08535400046452,0.0413457073195706,-8.39863846568903E-05,,,,,
Serial Number:,B07R011,(95UB122GC0AB07R011),,,,,Pixel to Wavelength Coefficients:,1794.37724621797,-0.920219689099738,-0.000237242138379873,,,,,
GUI Version:,3.9.4,Revision:,526,,,,Versions (Cal/Ref/Cfg):,1,3,1,,,,,
TIVA Version:,2.4.7,,,,,,***Lamp Usage ***,,,,,,,,
DLPC Version:,2.3.1,,,,,,Total Time(hh:mm:ss):,55min 6sec ,,,,,,,
UUID:,DE:67:0C:88:67:2B:47:21,,,,,,***Device/Error/Activation Status***,,,,,,,,
Main Board Version:,D,,,,,,Device Status:,0x00000001,Activation Status:,Activated,,,,,
Detector Board Version:,B,,,,,,Error status:,0x00000000,Error Code:,0x00000000000000000000000000000000,,,,,
,,,,,,,,,Error Details:,Not found,,,,,
***Scan Data***,,,,,,,,,,,,,,,
Wavelength (nm),Absorbance (AU),Reference Signal (unitless),Sample Signal (unitless)
901.81429527209,0.238345447979923,87079,50300
905.716563509274,0.237999939367795,94166,54437
909.614561387966,0.235743248384418,101926,59230
913.508288908168,0.235545029917522,111044,64558
917.397746069878,0.234641163498057,121948,71045
921.282932873098,0.234914276284549,135700,79007
925.163849317827,0.234065242131213,151960,88647
929.040495404065,0.232181181510839,170647,99981
932.912871131812,0.233148334751428,190128,111147
938.069395988934,0.23182959488428,214425,125732
941.931807546869,0.231649588517885,230149,135008
945.789948746314,0.231385639046509,244274,143381
949.643819587268,0.230796650394579,256761,150915
953.493420069731,0.23049873551028,268539,157946
957.338750193702,0.230097464712477,279896,164778
961.179809959184,0.230508077515486,290743,171002
965.016599366174,0.229737314724056,300998,177348
968.849118414673,0.229661517645601,310959,183249
973.952501032798,0.229458023046241,323960,191000
977.775055911486,0.229849144270134,334083,196791
981.593340431682,0.229499901424716,342569,201952
985.407354593388,0.229165723049441,350316,206678
989.217098396603,0.229642201278871,357829,210879
993.022571841327,0.228794916740164,364175,215038
996.823774927561,0.22938295211546,369644,217972
1000.6207076553,0.228705173948363,375373,221696
1004.41337002455,0.228839660576892,379815,224250
1008.20176203532,0.228392952149679,383245,226508
1013.24630860312,0.228400408097516,386864,228643
1017.02473644407,0.228050266613212,388958,230066
1020.79889392653,0.228053477926887,390638,231058
1024.5687810505,0.228160753572922,392155,231898
1028.33439781597,0.227693096097202,392510,232358
1032.09574422296,0.228024987737367,392734,232313
1035.85282027145,0.227239569218143,393074,232935
1039.60562596146,0.227296357390529,392906,232805
1043.35416129297,0.226635641621189,393035,233236
1048.34556562178,0.226920351851755,392281,232636
1052.08413678348,0.227049849887009,392091,232454
1055.81843758669,0.226149226504253,391745,232731
1059.54846803141,0.226157614192809,391729,232717
1063.27422811764,0.226031697386061,391639,232731
1066.99571784538,0.226092014851743,391584,232666
1070.71293721462,0.226461915937495,392391,232947
1074.42588622538,0.226017880891704,393454,233817
1078.13456487764,0.226375880457591,394762,234401
1081.83897317142,0.225619380456736,396316,235734
1086.77154144991,0.226125173908844,398530,236775
1090.46598557387,0.225729619829051,400994,238456
1094.15615933934,0.225821976849005,403720,240026
1097.84206274632,0.225804085752214,405979,241379
1101.52369579481,0.225581504343502,408733,243141
1105.20105848481,0.226009489774619,412318,245032
1108.87415081632,0.225924235811658,415977,247255
1112.54297278934,0.225716912713798,419372,249392
1116.20752440387,0.225992671564742,422864,251309
1121.08695044336,0.226076281965004,428580,254657
1124.74153788807,0.226757892393456,433034,256900
1128.3918549743,0.226714360768819,437784,259744
1132.03790170203,0.226992918597346,442519,262385
1135.67967807127,0.226983206777856,447265,265205
1139.31718408202,0.227189826476408,452236,268025
1142.95041973428,0.227673996691458,457585,270893
1146.57938502805,0.2279216813355,462788,273817
1150.20407996333,0.228482824140319,468289,276714
1153.82450454012,0.229171108748527,474071,279687
1158.6450945293,0.229304001774401,482280,284443
1162.25555493627,0.229711400365409,488160,287641
1165.86174498476,0.230123239697912,494674,291203
1169.46366467475,0.230394620532669,501439,295001
1173.06131400625,0.231185829657366,508448,298580
1176.65469297927,0.231317269409611,515608,302693
1180.24380159379,0.231971022173905,522690,306389
1183.82863984982,0.231965832463219,530584,311020
1187.40920774736,0.232322164450811,538846,315604
1192.17665549754,0.23245091571086,549188,321566
1195.74725922527,0.232745583980589,557723,326342
1199.3135925945,0.232487771241993,566207,331503
1202.87565560525,0.232839166574414,574643,336170
1206.43344825751,0.232541692741331,582835,341196
1209.98697055127,0.232775407785063,592014,346383
1213.53622248654,0.232582976112437,600801,351680
1217.08120406333,0.232085621791078,608898,356828
1220.62191528162,0.231860704257265,617414,362006
1224.15835614142,0.231572284387503,625867,367206
1228.86696784128,0.231018681851744,636507,373925
1232.39344453127,0.231051496379382,644420,378545
1235.91565086277,0.230715753926043,651888,383228
1239.43358683578,0.230493749462738,658818,387500
1242.94725245029,0.230161137895239,665595,391786
1246.45664770632,0.230040972735264,672393,395897
1249.96177260386,0.229977083746921,677898,399197
1253.4626271429,0.229799168225202,683261,402520
1256.95921132345,0.229763076352892,688785,405808
1261.61468078432,0.229792100282062,698301,411387
1265.10130079506,0.229823983529943,705482,415587
1268.58365044731,0.229858035154714,712160,419488
1272.06172974107,0.229939976751725,718504,423145
1275.53553867634,0.229841201529483,724413,426722
1279.00507725312,0.229937891844763,729670,429723
1282.4703454714,0.229519302459066,734733,433122
1285.9313433312,0.229759564260958,739410,435638
1289.38807083251,0.229701304544071,743209,437935
1292.84052797532,0.229793579234975,746828,439974
1297.43716138587,0.229724723044414,751684,442905
1300.87965435887,0.229988769787476,754646,444380
1304.31787697338,0.229805974092831,757389,446183
1307.7518292294,0.229926413118465,759567,447342
1311.18151112693,0.230022693197071,761680,448487
1314.60692266597,0.230070202822131,763630,449586
1318.02806384652,0.230227962738062,764582,449983
1321.44493466858,0.230191939551583,765504,450563
1324.85753513215,0.230882505886738,766535,450453
1329.4010263037,0.231145144713086,767123,450526
1332.80366259745,0.231486772701517,766982,450089
1336.20202853272,0.231563192911461,766425,449683
1339.59612410949,0.232452485841365,766172,448615
1342.98594932777,0.233077274462697,765132,447362
1346.37150418756,0.233822971282616,763154,445440
1349.75278868886,0.234486436813255,761203,443623
1353.12980283167,0.235086015057337,758514,441446
1356.50254661599,0.235722242834836,755830,439240
1359.87102004182,0.236583482534548,752963,436707
1364.35567516305,0.237123582798029,750052,434478
1367.71418441907,0.237666704977357,748085,432797
1371.06842331659,0.238553396094299,745535,430442
1374.41839185563,0.239088421276992,740655,427098
1377.76409003617,0.23933199330355,734333,423215
1381.10551785823,0.240455658876951,728468,418750
1384.44267532179,0.241553891149336,722487,414263
1387.77556242686,0.242550083429161,716946,410144
1391.10417917344,0.243865896331432,712045,406108
1395.53569205567,0.245939870844467,706030,400759
1398.85434463244,0.247820104245953,702490,397027
1402.16872685072,0.250464862633725,699007,392660
1405.47883871051,0.253035751060818,695987,388656
1408.7846802118,0.256317442650964,693502,384353
1412.08625135461,0.259355777383555,690723,380144
1415.38355213892,0.262420771906584,688279,376135
1418.67658256475,0.265414841272309,686505,372588
1421.96534263208,0.268754663450192,685035,368942
1425.24983234092,0.27147819664152,683500,365814
1429.62250917284,0.274274713289963,681501,362403
1432.89703471187,0.276162674067843,680687,360400
1436.16728989241,0.277438278076324,679308,358615
1439.43327471445,0.279275282220002,678887,356880
1442.69498917801,0.279866673726833,677511,355672
1445.95243328308,0.28052279396542,676681,354700
1449.20560702965,0.281230277665222,675667,353592
1452.45451041774,0.281402996060185,673508,352322
1455.69914344733,0.282164645691066,671519,350666
1460.01867804025,0.28199909218903,668474,349209
1463.25334690003,0.282360176505066,666162,347712
1466.48374540132,0.282456353354167,663301,346142
1469.70987354412,0.282555638907933,659924,344301
1472.93173132843,0.282259174245524,656704,342855
1476.14931875425,0.282178677722754,653681,341340
1479.36263582158,0.281686562429215,649641,339615
1482.57168253042,0.281852803456544,646118,337644
1485.77645888076,0.281446342666385,641732,335666
1488.97696487262,0.281134242315803,637943,333924
1493.23766341522,0.280689518333572,631181,330723
1496.42820523726,0.28079989423817,626590,328234
1499.61447670082,0.279902222400957,621549,326267
1502.79647780588,0.27949111349417,616239,323786
1505.97420855245,0.279322089405476,610716,321009
1509.14766894053,0.278750155523649,605035,318442
1512.31685897012,0.278139228664389,599020,315720
1515.48177864122,0.277396256333072,592437,312785
1518.64242795382,0.276479915802581,586293,310195
1522.84998425743,0.275873343437556,577270,305848
1526.00066940022,0.275544232407188,570524,302503
1529.14708418453,0.275350315574823,563445,298883
1532.28922861034,0.2748068592133,555661,295123
1535.42710267766,0.27477614838453,548123,291140
1538.5607063865,0.274590533139431,540111,287007
1541.69003973684,0.274506270776516,531705,282595
1544.81510272869,0.273969534209508,523120,278376
1547.93589536205,0.274100013774545,514792,273862
1551.05241763692,0.273949179357945,505789,269166
1555.2011378902,0.273596337233049,494340,263287
1558.30769599526,0.273851927063253,485681,258523
1561.40998374183,0.273677125417635,476849,253924
1564.5080011299,0.273584907802183,467807,249162
1567.60174815948,0.274205751161261,458419,243813
1570.69122483058,0.274071888360569,448998,238876
1573.77643114318,0.273788664819822,439302,233870
1576.85736709729,0.273537738738522,429932,229014
1579.93403269291,0.27317813807388,419976,223896
1584.0296107072,0.274348272623025,407601,216714
1587.09631213301,0.273646946948958,398067,211987
1590.15874320033,0.273503358371019,388925,207187
1593.21690390916,0.273350369935142,379276,202118
1596.27079425949,0.273171516606114,370287,197409
1599.32041425134,0.272498886230143,361245,192887
1602.36576388469,0.272431599584068,352169,188070
1605.40684315956,0.272425588767937,343118,183239
1608.44365207593,0.272310361360869,333826,178324
1611.47619063381,0.271913307633939,324925,173728
1615.51293259778,0.271209636332454,312960,167602
1618.53550698585,0.271479973543489,304248,162835
1621.55381101543,0.272012391960314,295724,158079
1624.56784468652,0.271845694503463,286842,153390
1627.57760799912,0.271321818941609,278547,149134
1630.58310095323,0.2717827020723,269681,144234
1633.58432354884,0.271684250173792,261264,139764
1636.58127578597,0.272252750577136,252968,135149
1639.5739576646,0.271570795221601,244565,130865
1643.55755738958,0.272858238804434,233758,124712
1646.5402750984,0.272871107951536,225598,120355
1649.51872244873,0.273766802140184,217756,115932
1652.49289944057,0.274836707677869,209641,111337
1655.46280607392,0.276385332672662,202047,106922
1658.42844234878,0.276640404451894,194232,102726
1661.38980826515,0.278666407115563,186761,98315
1664.34690382303,0.278722445421076,178420,93912
1667.29972902242,0.280808677231331,169526,88803
1670.24828386331,0.280759037289347,160081,83865
1674.17304753796,0.282165691837196,144930,75682
1677.11163820905,0.283889767876495,132502,68918
1680.04595852164,0.285687727514498,118999,61639
1682.97600847574,0.28608322989099,104640,54152
1685.90178807136,0.286548818466744,91281,47188
1688.82329730848,0.285721673467839,77988,40393
1691.74053618711,0.291270158374825,66528,34020
1694.65350470725,0.292476105039727,56306,28713
1697.56220286889,0.296144068889724,47641,24090
1701.43382430455,0.295967837777328,38382,19416
