***Scan Config Information***,,,,,,,***Reference Scan Information***,,,,,,,,
Scan Config Name:,herbario,,,,,,Scan Config Name:,Local New Reference,,,,,,,
Scan Config Type:,Slew,Num Section:,1,,,,Scan Config Type:,Slew,Num Section:,1,,,,,
Section Config Type:,Column,,,,,,Section Config Type:,Column,,,,,,,
Start Wavelength (nm):,900,,,,,,Start Wavelength (nm):,900,,,,,,,
End Wavelength (nm):,1700,,,,,,End Wavelength (nm):,1700,,,,,,,
Pattern Width (nm):,7.03,,,,,,Pattern Width (nm):,7.03,,,,,,,
Exposure (ms):,0.635,,,,,,Exposure (ms):,0.635,,,,,,,
Digital Resolution:,228,,,,,,Digital Resolution:,228,,,,,,,
Num Repeats:,20,,,,,,Num Repeats:,20,,,,,,,
PGA Gain:,64,(FixedPGA),,,,,PGA Gain:,64,(AutoPGA),,,,,,
System Temp (C):,40.89,,,,,,System Temp (C):,40.62,,,,,,,
Humidity (%):,26.51,,,,,,Humidity (%):,26.89,,,,,,,
Lamp Indicator:,1118,,,,,,Lamp Indicator:,1117,,,,,,,
Data Date-Time:,2023/11/10T13:51:26,,,,,,Data Date-Time:,2023/11/10T13:49:29,,,,,,,
Total Measurement Time in sec:,6.7621514,,,,,,,,,,,,,,
,,,,,,,,,,,,,,,
***General Information***,,,,,,,***Calibration Coefficients***,,,,,,,,
Model Name:,NIR-S-G1,,,,,,Shift Vector Coefficients:,-5.08535400046452,0.0413457073195706,-8.39863846568903E-05,,,,,
Serial Number:,B07R011,(95UB122GC0AB07R011),,,,,Pixel to Wavelength Coefficients:,1794.37724621797,-0.920219689099738,-0.000237242138379873,,,,,
GUI Version:,3.9.4,Revision:,526,,,,Versions (Cal/Ref/Cfg):,1,3,1,,,,,
TIVA Version:,2.4.7,,,,,,***Lamp Usage ***,,,,,,,,
DLPC Version:,2.3.1,,,,,,Total Time(hh:mm:ss):,55min 11sec ,,,,,,,
UUID:,DE:67:0C:88:67:2B:47:21,,,,,,***Device/Error/Activation Status***,,,,,,,,
Main Board Version:,D,,,,,,Device Status:,0x00000001,Activation Status:,Activated,,,,,
Detector Board Version:,B,,,,,,Error status:,0x00000000,Error Code:,0x00000000000000000000000000000000,,,,,
,,,,,,,,,Error Details:,Not found,,,,,
***Scan Data***,,,,,,,,,,,,,,,
Wavelength (nm),Absorbance (AU),Reference Signal (unitless),Sample Signal (unitless)
901.81429527209,0.197290408276963,87079,55287
905.716563509274,0.194802918928213,94166,60130
909.614561387966,0.193617947529683,101926,65263
913.508288908168,0.192972408413606,111044,71207
917.397746069878,0.190315850635408,121948,78679
921.282932873098,0.192088265647668,135700,87195
925.163849317827,0.190379142775431,151960,98028
929.040495404065,0.18977521158682,170647,110236
932.912871131812,0.188442422243796,190128,123198
938.069395988934,0.189433859592472,214425,138625
941.931807546869,0.188356717530402,230149,149160
945.789948746314,0.187911002730807,244274,158477
949.643819587268,0.187140382263197,256761,166874
953.493420069731,0.186863644633623,268539,174640
957.338750193702,0.186250524442974,279896,182283
961.179809959184,0.185341215627002,290743,189744
965.016599366174,0.185333684447069,300998,196440
968.849118414673,0.184835000115425,310959,203174
973.952501032798,0.184237479451677,323960,211960
977.775055911486,0.184655436421391,334083,218373
981.593340431682,0.184083396355732,342569,224215
985.407354593388,0.183276290285492,350316,229712
989.217098396603,0.183432691099924,357829,234554
993.022571841327,0.182986736741549,364175,238959
996.823774927561,0.182966267708676,369644,242559
1000.6207076553,0.183081501242897,375373,246253
1004.41337002455,0.182084004911587,379815,249740
1008.20176203532,0.181926047641525,383245,252087
1013.24630860312,0.181957569503563,386864,254449
1017.02473644407,0.181006707709856,388958,256387
1020.79889392653,0.181176068732129,390638,257394
1024.5687810505,0.181126592817006,392155,258423
1028.33439781597,0.181348178968237,392510,258525
1032.09574422296,0.181057042768021,392734,258846
1035.85282027145,0.180524437669292,393074,259388
1039.60562596146,0.180715662322321,392906,259163
1043.35416129297,0.180354117219351,393035,259464
1048.34556562178,0.180094662694865,392281,259121
1052.08413678348,0.179676484680137,392091,259245
1055.81843758669,0.179623218467595,391745,259048
1059.54846803141,0.179667515264506,391729,259011
1063.27422811764,0.179210725192539,391639,259224
1066.99571784538,0.179334059687749,391584,259114
1070.71293721462,0.17958167552659,392391,259500
1074.42588622538,0.179378087804926,393454,260325
1078.13456487764,0.179097880799219,394762,261359
1081.83897317142,0.179135707107519,396316,262365
1086.77154144991,0.179308071424716,398530,263726
1090.46598557387,0.179552891540137,400994,265207
1094.15615933934,0.179003325040347,403720,267348
1097.84206274632,0.179321574353861,405979,268647
1101.52369579481,0.179010811710221,408733,270663
1105.20105848481,0.179488235490536,412318,272737
1108.87415081632,0.179528213322324,415977,275132
1112.54297278934,0.179801504704342,419372,277203
1116.20752440387,0.179588995933564,422864,279648
1121.08695044336,0.179857382232076,428580,283253
1124.74153788807,0.180444576722548,433034,285810
1128.3918549743,0.180637132484742,437784,288817
1132.03790170203,0.180916591858704,442519,291753
1135.67967807127,0.181553355833561,447265,294450
1139.31718408202,0.181492941258404,452236,297764
1142.95041973428,0.181825935020852,457585,301055
1146.57938502805,0.182101545304248,462788,304285
1150.20407996333,0.182730983710483,468289,307456
1153.82450454012,0.18286520947926,474071,311156
1158.6450945293,0.183723506210999,482280,315919
1162.25555493627,0.183981238931853,488160,319581
1165.86174498476,0.184536098197516,494674,323432
1169.46366467475,0.184621083509778,501439,327791
1173.06131400625,0.184999899604302,508448,332083
1176.65469297927,0.185253276931465,515608,336563
1180.24380159379,0.185474529528647,522690,341012
1183.82863984982,0.185605255996886,530584,346058
1187.40920774736,0.186423649196943,538846,350785
1192.17665549754,0.18608677190935,549188,357795
1195.74725922527,0.18666749005845,557723,362870
1199.3135925945,0.186510636307099,566207,368523
1202.87565560525,0.186740234694206,574643,373816
1206.43344825751,0.186439139872659,582835,379408
1209.98697055127,0.186570165916276,592014,385267
1213.53622248654,0.186114263926299,600801,391396
1217.08120406333,0.185647941507834,608898,397097
1220.62191528162,0.185021483096064,617414,403232
1224.15835614142,0.184589944668037,625867,409159
1228.86696784128,0.183911944485444,636507,416765
1232.39344453127,0.183537645241551,644420,422310
1235.91565086277,0.183244994750554,651888,427492
1239.43358683578,0.182784365278712,658818,432495
1242.94725245029,0.182384892052939,665595,437346
1246.45664770632,0.182753468029912,672393,441438
1249.96177260386,0.182213322716302,677898,445606
1253.4626271429,0.182129482284798,683261,449218
1256.95921132345,0.181694129376472,688785,453304
1261.61468078432,0.181842219700484,698301,459410
1265.10130079506,0.181575023307916,705482,464420
1268.58365044731,0.181714128747833,712160,468666
1272.06172974107,0.181391796610527,718504,473192
1275.53553867634,0.181425976702517,724413,477046
1279.00507725312,0.181405080729896,729670,480531
1282.4703454714,0.181181007112403,734733,484115
1285.9313433312,0.18122707044378,739410,487145
1289.38807083251,0.180621608831213,743209,490331
1292.84052797532,0.180966938277388,746828,492327
1297.43716138587,0.180962724544088,751684,495533
1300.87965435887,0.180517419973659,754646,497996
1304.31787697338,0.181021797730202,757389,499226
1307.7518292294,0.180968547643907,759567,500723
1311.18151112693,0.180852606728601,761680,502250
1314.60692266597,0.180984437084868,763630,503383
1318.02806384652,0.18138060675477,764582,503551
1321.44493466858,0.181108676245946,765504,504474
1324.85753513215,0.181683731775816,766535,504485
1329.4010263037,0.181846328042415,767123,504683
1332.80366259745,0.182433918549287,766982,503908
1336.20202853272,0.182651361170795,766425,503290
1339.59612410949,0.183123666905293,766172,502577
1342.98594932777,0.183714038978811,765132,501213
1346.37150418756,0.184421134403918,763154,499104
1349.75278868886,0.185099539352714,761203,497051
1353.12980283167,0.185862300439959,758514,494426
1356.50254661599,0.186180175372737,755830,492316
1359.87102004182,0.187075063530961,752963,489439
1364.35567516305,0.187672114410859,750052,486877
1367.71418441907,0.188281745817192,748085,484919
1371.06842331659,0.189030129190837,745535,482434
1374.41839185563,0.189269565702081,740655,479012
1377.76409003617,0.189901273763222,734333,474233
1381.10551785823,0.190700887434013,728468,469580
1384.44267532179,0.191863953588748,722487,464479
1387.77556242686,0.193000605647834,716946,459712
1391.10417917344,0.194352894089482,712045,455150
1395.53569205567,0.19642981723619,706030,449152
1398.85434463244,0.198675572173237,702490,444595
1402.16872685072,0.201200626089928,699007,439826
1405.47883871051,0.204018033353121,695987,435094
1408.7846802118,0.207323810689006,693502,430253
1412.08625135461,0.210298216593827,690723,425604
1415.38355213892,0.213472107551202,688279,421010
1418.67658256475,0.21634208695696,686505,417159
1421.96534263208,0.219193137370095,685035,413542
1425.24983234092,0.221393619669097,683500,410530
1429.62250917284,0.224174171962389,681501,406717
1432.89703471187,0.225309103079246,680687,405171
1436.16728989241,0.226934141876861,679308,402840
1439.43327471445,0.227759458271272,678887,401826
1442.69498917801,0.227903044384682,677511,400879
1445.95243328308,0.228266450902503,676681,400053
1449.20560702965,0.22889262464346,675667,398878
1452.45451041774,0.228882183423491,673508,397613
1455.69914344733,0.229376279846168,671519,395988
1460.01867804025,0.229111277458905,668474,394433
1463.25334690003,0.229363047628398,666162,392841
1466.48374540132,0.229379530953687,663301,391139
1469.70987354412,0.229347872973268,659924,389176
1472.93173132843,0.228586069240923,656704,387957
1476.14931875425,0.228518733319892,653681,386231
1479.36263582158,0.227947670737456,649641,384349
1482.57168253042,0.228270078743273,646118,381981
1485.77645888076,0.227362144927973,641732,380182
1488.97696487262,0.227442910753178,637943,377867
1493.23766341522,0.227003712670141,631181,374240
1496.42820523726,0.226340129831319,626590,372086
1499.61447670082,0.225946738882556,621549,369427
1502.79647780588,0.225209754230426,616239,366893
1505.97420855245,0.224300261232448,610716,364367
1509.14766894053,0.223741881695693,605035,361442
1512.31685897012,0.222959431381617,599020,358494
1515.48177864122,0.222385684546875,592437,355023
1518.64242795382,0.221441283338797,586293,352106
1522.84998425743,0.220572927315232,577270,347381
1526.00066940022,0.219973098978945,570524,343796
1529.14708418453,0.219356007220126,563445,340013
1532.28922861034,0.218796481845841,555661,335748
1535.42710267766,0.218465243876667,548123,331446
1538.5607063865,0.21798839758905,540111,326960
1541.69003973684,0.21770698676847,531705,322080
1544.81510272869,0.217329761844329,523120,317155
1547.93589536205,0.217283754545854,514792,312139
1551.05241763692,0.216580685383308,505789,307177
1555.2011378902,0.216552862384749,494340,300243
1558.30769599526,0.216083255052918,485681,295303
1561.40998374183,0.215731359874046,476849,290168
1564.5080011299,0.215702131205494,467807,284685
1567.60174815948,0.215737800594784,458419,278949
1570.69122483058,0.215142599692024,448998,273591
1573.77643114318,0.215027212957293,439302,267754
1576.85736709729,0.21514655312532,429932,261971
1579.93403269291,0.214367433680043,419976,256364
1584.0296107072,0.214065545368699,407601,248983
1587.09631213301,0.213937250462494,398067,243231
1590.15874320033,0.213225041187018,388925,238035
1593.21690390916,0.213207252816779,379276,232139
1596.27079425949,0.211593336418127,370287,227481
1599.32041425134,0.211891215079493,361245,221774
1602.36576388469,0.211239065393755,352169,216527
1605.40684315956,0.211336034484381,343118,210915
1608.44365207593,0.210674520058699,333826,205516
1611.47619063381,0.210132534457946,324925,200286
1615.51293259778,0.208780931596548,312960,193512
1618.53550698585,0.209016754254336,304248,188023
1621.55381101543,0.209940318018001,295724,182367
1624.56784468652,0.20853981749266,286842,177461
1627.57760799912,0.208953618483371,278547,172165
1630.58310095323,0.207910287680125,269681,167086
1633.58432354884,0.207695937696937,261264,161951
1636.58127578597,0.208315430533103,252968,156585
1639.5739576646,0.207781054114493,244565,151570
1643.55755738958,0.208835524876868,233758,144521
1646.5402750984,0.208664538393101,225598,139531
1649.51872244873,0.20949977752672,217756,134422
1652.49289944057,0.210264133099993,209641,129185
1655.46280607392,0.210080780162363,202047,124558
1658.42844234878,0.211527470385206,194232,119342
1661.38980826515,0.213627692682016,186761,114198
1664.34690382303,0.212835293498357,178420,109297
1667.29972902242,0.213868175481328,169526,103602
1670.24828386331,0.214445224884928,160081,97700
1674.17304753796,0.213837325057499,144930,88577
1677.11163820905,0.21635642439371,132502,80513
1680.04595852164,0.217722508741356,118999,72081
1682.97600847574,0.219372519079767,104640,63143
1685.90178807136,0.221504740156651,91281,54812
1688.82329730848,0.220336689066391,77988,46956
1691.74053618711,0.224498478663182,66528,39674
1694.65350470725,0.222139374052871,56306,33761
1697.56220286889,0.218709035243213,47641,28792
1701.43382430455,0.226535753577765,38382,22782
