***Scan Config Information***,,,,,,,***Reference Scan Information***,,,,,,,,
Scan Config Name:,herbario,,,,,,Scan Config Name:,Local New Reference,,,,,,,
Scan Config Type:,Slew,Num Section:,1,,,,Scan Config Type:,Slew,Num Section:,1,,,,,
Section Config Type:,Column,,,,,,Section Config Type:,Column,,,,,,,
Start Wavelength (nm):,900,,,,,,Start Wavelength (nm):,900,,,,,,,
End Wavelength (nm):,1700,,,,,,End Wavelength (nm):,1700,,,,,,,
Pattern Width (nm):,7.03,,,,,,Pattern Width (nm):,7.03,,,,,,,
Exposure (ms):,0.635,,,,,,Exposure (ms):,0.635,,,,,,,
Digital Resolution:,228,,,,,,Digital Resolution:,228,,,,,,,
Num Repeats:,20,,,,,,Num Repeats:,20,,,,,,,
PGA Gain:,64,(FixedPGA),,,,,PGA Gain:,64,(AutoPGA),,,,,,
System Temp (C):,41.85,,,,,,System Temp (C):,41.74,,,,,,,
Humidity (%):,21.09,,,,,,Humidity (%):,21.08,,,,,,,
Lamp Indicator:,1119,,,,,,Lamp Indicator:,1129,,,,,,,
Data Date-Time:,2023/11/10T15:51:04,,,,,,Data Date-Time:,2023/11/10T15:50:16,,,,,,,
Total Measurement Time in sec:,6.7343394,,,,,,,,,,,,,,
,,,,,,,,,,,,,,,
***General Information***,,,,,,,***Calibration Coefficients***,,,,,,,,
Model Name:,NIR-S-G1,,,,,,Shift Vector Coefficients:,-5.08535400046452,0.0413457073195706,-8.39863846568903E-05,,,,,
Serial Number:,B07R011,(95UB122GC0AB07R011),,,,,Pixel to Wavelength Coefficients:,1794.37724621797,-0.920219689099738,-0.000237242138379873,,,,,
GUI Version:,3.9.4,Revision:,526,,,,Versions (Cal/Ref/Cfg):,1,3,1,,,,,
TIVA Version:,2.4.7,,,,,,***Lamp Usage ***,,,,,,,,
DLPC Version:,2.3.1,,,,,,Total Time(hh:mm:ss):,1hr 14min 43sec ,,,,,,,
UUID:,DE:67:0C:88:67:2B:47:21,,,,,,***Device/Error/Activation Status***,,,,,,,,
Main Board Version:,D,,,,,,Device Status:,0x00000001,Activation Status:,Activated,,,,,
Detector Board Version:,B,,,,,,Error status:,0x00000000,Error Code:,0x00000000000000000000000000000000,,,,,
,,,,,,,,,Error Details:,Not found,,,,,
***Scan Data***,,,,,,,,,,,,,,,
Wavelength (nm),Absorbance (AU),Reference Signal (unitless),Sample Signal (unitless)
901.81429527209,0.512424708949151,87098,26766
905.716563509274,0.505119487346623,94003,29378
909.614561387966,0.501977496566162,101696,32013
913.508288908168,0.499781112042272,110861,35075
917.397746069878,0.494176561417558,121786,39032
921.282932873098,0.490181423044032,135226,43740
925.163849317827,0.488351202852722,151294,49144
929.040495404065,0.483073121999053,170154,55946
932.912871131812,0.479645091746455,189145,62683
938.069395988934,0.474177946024306,213522,71658
941.931807546869,0.471072706908415,229737,77653
945.789948746314,0.466829993517079,243875,83241
949.643819587268,0.464017226765322,256619,88160
953.493420069731,0.460102233235255,268330,93018
957.338750193702,0.457770443303464,279977,97578
961.179809959184,0.454123512883826,290283,102023
965.016599366174,0.451124390734785,300837,106465
968.849118414673,0.447782596602156,310908,110879
973.952501032798,0.443847614837208,324401,116744
977.775055911486,0.441497654030475,334131,120898
981.593340431682,0.438777173228762,342591,124738
985.407354593388,0.436366705809742,350440,128306
989.217098396603,0.433588293830082,357834,131854
993.022571841327,0.430248994185783,364220,135243
996.823774927561,0.42808482977562,369567,137914
1000.6207076553,0.425945588044982,375284,140739
1004.41337002455,0.423395137942437,379910,143313
1008.20176203532,0.420356479632868,383371,145634
1013.24630860312,0.417162385767878,387011,148102
1017.02473644407,0.414283961591217,389140,149907
1020.79889392653,0.412422605297037,390929,151243
1024.5687810505,0.4097571482833,392149,152649
1028.33439781597,0.407101146431873,392342,153661
1032.09574422296,0.405081353082735,392603,154480
1035.85282027145,0.403832038157199,393424,155249
1039.60562596146,0.401822106698821,393189,155876
1043.35416129297,0.399376271724303,393439,156856
1048.34556562178,0.396659219958469,392588,157499
1052.08413678348,0.394409038931281,392295,158199
1055.81843758669,0.391842279479814,391985,159011
1059.54846803141,0.390197421380617,391876,159570
1063.27422811764,0.38932886658495,391995,159938
1066.99571784538,0.387416173039819,392327,160780
1070.71293721462,0.385932936369258,392626,161453
1074.42588622538,0.383685942995614,393757,162758
1078.13456487764,0.382083809440369,394797,163791
1081.83897317142,0.380213431330482,396686,165285
1086.77154144991,0.378336266026665,398648,166822
1090.46598557387,0.377326787210526,400972,168185
1094.15615933934,0.374843282847396,403429,170186
1097.84206274632,0.374161102984491,405804,171457
1101.52369579481,0.373010168107733,409012,173271
1105.20105848481,0.371913193291144,412614,175239
1108.87415081632,0.369786707435685,415662,177400
1112.54297278934,0.368871563681857,419302,179331
1116.20752440387,0.367419351774556,423297,181646
1121.08695044336,0.365958384512059,428692,184581
1124.74153788807,0.364802708487573,433017,186940
1128.3918549743,0.364514930248906,437707,189090
1132.03790170203,0.363464923044937,442557,191648
1135.67967807127,0.362374662387064,447434,194247
1139.31718408202,0.361662966423762,451871,196495
1142.95041973428,0.360626012329783,457669,199492
1146.57938502805,0.359596060685261,462824,202218
1150.20407996333,0.359129309348246,468118,204751
1153.82450454012,0.358222718501364,473870,207700
1158.6450945293,0.357503442847438,482010,211618
1162.25555493627,0.356426613207582,487928,214748
1165.86174498476,0.356477011286964,494654,217683
1169.46366467475,0.355605158996156,501309,221055
1173.06131400625,0.355143472367071,508046,224264
1176.65469297927,0.354868050882493,515444,227674
1180.24380159379,0.353839186916222,522213,231211
1183.82863984982,0.352672331052256,530518,235520
1187.40920774736,0.352466675276534,538541,239195
1192.17665549754,0.35146836829563,548992,244398
1195.74725922527,0.350534840035341,557335,248646
1199.3135925945,0.349359425104659,565660,253044
1202.87565560525,0.348454878382059,574033,257325
1206.43344825751,0.347218763952883,582556,261890
1209.98697055127,0.347036624597169,591497,266021
1213.53622248654,0.345570601423222,600043,270777
1217.08120406333,0.345152105694573,608553,274882
1220.62191528162,0.344002589245874,616865,279375
1224.15835614142,0.342860142211095,625357,283967
1228.86696784128,0.341433073641219,636054,289775
1232.39344453127,0.340731305112558,644161,293943
1235.91565086277,0.339580994734229,651639,298144
1239.43358683578,0.338965069754935,658433,301680
1242.94725245029,0.338162572134645,665339,305408
1246.45664770632,0.336942038854351,671816,309249
1249.96177260386,0.336331680302699,677591,312346
1253.4626271429,0.335800155520656,683063,315254
1256.95921132345,0.335104109647411,688673,318353
1261.61468078432,0.334014965332669,698104,323523
1265.10130079506,0.333599097689493,705272,327158
1268.58365044731,0.333139804866121,712040,330647
1272.06172974107,0.332360777922327,718337,334170
1275.53553867634,0.331807920867328,724057,337260
1279.00507725312,0.330820163452,729063,340365
1282.4703454714,0.330994908390501,734510,342770
1285.9313433312,0.329820700117194,738891,345748
1289.38807083251,0.329327247272104,742793,347969
1292.84052797532,0.328904503239571,746521,350056
1297.43716138587,0.32862656474133,751397,352568
1300.87965435887,0.327545774458057,754436,354876
1304.31787697338,0.327522634764862,757238,356213
1307.7518292294,0.327416767881301,759438,357335
1311.18151112693,0.326521264284787,761265,358934
1314.60692266597,0.32656242501334,763191,359808
1318.02806384652,0.326255319540447,764326,360598
1321.44493466858,0.325966904335451,765206,361253
1324.85753513215,0.325982686319415,766079,361652
1329.4010263037,0.325733741405397,766906,362250
1332.80366259745,0.326053297404538,766765,361917
1336.20202853272,0.326044485812007,766277,361694
1339.59612410949,0.326111631747771,765781,361404
1342.98594932777,0.326343129792096,764771,360735
1346.37150418756,0.326451930363123,763105,359859
1349.75278868886,0.326839518306108,761146,358615
1353.12980283167,0.32671312874829,758251,357355
1356.50254661599,0.327279607069274,756126,355889
1359.87102004182,0.327820331539366,753290,354113
1364.35567516305,0.328068410774619,750400,352553
1367.71418441907,0.328531135032958,748251,351169
1371.06842331659,0.32889757441754,745494,349580
1374.41839185563,0.329372496328128,740569,346891
1377.76409003617,0.329845957121407,734495,343671
1381.10551785823,0.330997987388354,728633,340025
1384.44267532179,0.332184342311797,722708,336340
1387.77556242686,0.333371341503155,716841,332699
1391.10417917344,0.335924699438231,711937,328486
1395.53569205567,0.338574426303522,706043,323785
1398.85434463244,0.340658423882285,702351,320550
1402.16872685072,0.344511289506708,698925,316169
1405.47883871051,0.347894338999359,695771,312300
1408.7846802118,0.351650057368408,693070,308409
1412.08625135461,0.355677690391551,690432,304399
1415.38355213892,0.359729193712124,687956,300491
1418.67658256475,0.363610467328511,686227,297069
1421.96534263208,0.366958582166358,684631,294102
1425.24983234092,0.369760904065377,683065,291542
1429.62250917284,0.3727990453238,681202,288720
1432.89703471187,0.375066104499224,680491,286917
1436.16728989241,0.375839481757833,678924,285747
1439.43327471445,0.377223010662077,678149,284513
1442.69498917801,0.377926995208113,677535,283795
1445.95243328308,0.378068012047349,676549,283290
1449.20560702965,0.377968422086913,675520,282924
1452.45451041774,0.377819718602954,673322,282100
1455.69914344733,0.377365733353985,671176,281495
1460.01867804025,0.377334117929675,668290,280305
1463.25334690003,0.376629807434222,665817,279721
1466.48374540132,0.376830425415816,662905,278369
1469.70987354412,0.376227300710066,659840,277467
1472.93173132843,0.375247262839963,656445,276663
1476.14931875425,0.374670097308951,653142,275637
1479.36263582158,0.373444360157911,649314,274796
1482.57168253042,0.372618784762931,645555,273725
1485.77645888076,0.371919177485079,641575,272476
1488.97696487262,0.371507757973784,637653,271067
1493.23766341522,0.370207591790324,631150,269107
1496.42820523726,0.369557364180782,626330,267452
1499.61447670082,0.368356247106183,621354,266062
1502.79647780588,0.367059394429832,615876,264505
1505.97420855245,0.366451771420858,610446,262540
1509.14766894053,0.365225681070434,605006,260936
1512.31685897012,0.364042249919708,598631,258891
1515.48177864122,0.363555616827234,591960,256293
1518.64242795382,0.362491782357494,586058,254360
1522.84998425743,0.361888566210745,577256,250888
1526.00066940022,0.3605147189657,570497,248736
1529.14708418453,0.359809392934407,563297,245996
1532.28922861034,0.359251804616843,555622,242956
1535.42710267766,0.359084887185292,548068,239745
1538.5607063865,0.358331609172971,539795,236536
1541.69003973684,0.357538144144453,531329,233252
1544.81510272869,0.357081059169338,522783,229742
1547.93589536205,0.356948765133527,514307,226086
1551.05241763692,0.356417145273131,505503,222488
1555.2011378902,0.355825162394863,494198,217809
1558.30769599526,0.35524054823723,485453,214243
1561.40998374183,0.355486092819702,476550,210195
1564.5080011299,0.354364819870181,467497,206735
1567.60174815948,0.354335488240179,458077,202583
1570.69122483058,0.354363835767196,448546,198355
1573.77643114318,0.354034361378392,439312,194419
1576.85736709729,0.354182752467652,429695,190098
1579.93403269291,0.353572902926331,420009,186074
1584.0296107072,0.352559082015999,407583,180991
1587.09631213301,0.351607791162795,397966,177108
1590.15874320033,0.351616583491923,388815,173032
1593.21690390916,0.35110618637875,379017,168870
1596.27079425949,0.349955714070432,369949,165267
1599.32041425134,0.349304243979097,360968,161497
1602.36576388469,0.348826766680726,351980,157649
1605.40684315956,0.347478979213992,342841,154033
1608.44365207593,0.347228320362077,333812,150063
1611.47619063381,0.347321923513479,324706,145938
1615.51293259778,0.346481921967002,312731,140828
1618.53550698585,0.345433666144814,304064,137256
1621.55381101543,0.344273291913114,295617,133800
1624.56784468652,0.345230630373832,286872,129556
1627.57760799912,0.343856694933115,278417,126136
1630.58310095323,0.342146170763902,269434,122548
1633.58432354884,0.342465234723904,261280,118752
1636.58127578597,0.342350918148325,252945,114994
1639.5739576646,0.342686420226923,244771,111192
1643.55755738958,0.342355044473309,233707,106247
1646.5402750984,0.342283347059509,225630,102592
1649.51872244873,0.342996808595155,217848,98891
1652.49289944057,0.341565974903543,209563,95444
1655.46280607392,0.343731014495244,202459,91750
1658.42844234878,0.343202129258588,194631,88310
1661.38980826515,0.345265024175191,186928,84413
1664.34690382303,0.344091808114549,179096,81095
1667.29972902242,0.345170817674698,170296,76919
1670.24828386331,0.343929392868531,161348,73086
1674.17304753796,0.347208834383309,147007,66089
1677.11163820905,0.347113292580775,134830,60628
1680.04595852164,0.3488721762515,121676,54492
1682.97600847574,0.34914401163003,108105,48384
1685.90178807136,0.350874998715009,94272,42025
1688.82329730848,0.348591799998566,81123,36354
1691.74053618711,0.351367330733858,69060,30751
1694.65350470725,0.356158253962817,58627,25819
1697.56220286889,0.35332951185548,49667,22016
1701.43382430455,0.352701430940674,39778,17658
