***Scan Config Information***,,,,,,,***Reference Scan Information***,,,,,,,,
Scan Config Name:,herbario,,,,,,Scan Config Name:,Local New Reference,,,,,,,
Scan Config Type:,Slew,Num Section:,1,,,,Scan Config Type:,Slew,Num Section:,1,,,,,
Section Config Type:,Column,,,,,,Section Config Type:,Column,,,,,,,
Start Wavelength (nm):,900,,,,,,Start Wavelength (nm):,900,,,,,,,
End Wavelength (nm):,1700,,,,,,End Wavelength (nm):,1700,,,,,,,
Pattern Width (nm):,7.03,,,,,,Pattern Width (nm):,7.03,,,,,,,
Exposure (ms):,0.635,,,,,,Exposure (ms):,0.635,,,,,,,
Digital Resolution:,228,,,,,,Digital Resolution:,228,,,,,,,
Num Repeats:,20,,,,,,Num Repeats:,20,,,,,,,
PGA Gain:,64,(FixedPGA),,,,,PGA Gain:,64,(AutoPGA),,,,,,
System Temp (C):,41.19,,,,,,System Temp (C):,41.41,,,,,,,
Humidity (%):,20.76,,,,,,Humidity (%):,20.67,,,,,,,
Lamp Indicator:,1114,,,,,,Lamp Indicator:,1126,,,,,,,
Data Date-Time:,2023/11/10T16:09:37,,,,,,Data Date-Time:,2023/11/10T16:07:27,,,,,,,
Total Measurement Time in sec:,6.712061,,,,,,,,,,,,,,
,,,,,,,,,,,,,,,
***General Information***,,,,,,,***Calibration Coefficients***,,,,,,,,
Model Name:,NIR-S-G1,,,,,,Shift Vector Coefficients:,-5.08535400046452,0.0413457073195706,-8.39863846568903E-05,,,,,
Serial Number:,B07R011,(95UB122GC0AB07R011),,,,,Pixel to Wavelength Coefficients:,1794.37724621797,-0.920219689099738,-0.000237242138379873,,,,,
GUI Version:,3.9.4,Revision:,526,,,,Versions (Cal/Ref/Cfg):,1,3,1,,,,,
TIVA Version:,2.4.7,,,,,,***Lamp Usage ***,,,,,,,,
DLPC Version:,2.3.1,,,,,,Total Time(hh:mm:ss):,1hr 16min 59sec ,,,,,,,
UUID:,DE:67:0C:88:67:2B:47:21,,,,,,***Device/Error/Activation Status***,,,,,,,,
Main Board Version:,D,,,,,,Device Status:,0x00000001,Activation Status:,Activated,,,,,
Detector Board Version:,B,,,,,,Error status:,0x00000000,Error Code:,0x00000000000000000000000000000000,,,,,
,,,,,,,,,Error Details:,Not found,,,,,
***Scan Data***,,,,,,,,,,,,,,,
Wavelength (nm),Absorbance (AU),Reference Signal (unitless),Sample Signal (unitless)
901.81429527209,0.581463716305106,87487,22934
905.716563509274,0.582114631959379,95049,24879
909.614561387966,0.575000876731771,102461,27262
913.508288908168,0.571284195041672,111813,30006
917.397746069878,0.569401577516618,122909,33127
921.282932873098,0.562262761245727,136329,37353
925.163849317827,0.556986376855199,152913,42409
929.040495404065,0.554254705698577,171464,47854
932.912871131812,0.550311981230352,190867,53755
938.069395988934,0.54481040412237,215471,61458
941.931807546869,0.540041143711447,231552,66774
945.789948746314,0.535241089275198,245997,71728
949.643819587268,0.532035883107443,258575,75954
953.493420069731,0.527359351071091,270429,80296
957.338750193702,0.523264352964562,281690,84432
961.179809959184,0.520923377327253,292739,88218
965.016599366174,0.515728668893276,302692,92315
968.849118414673,0.512349704100807,313077,96228
973.952501032798,0.507394057169943,326280,101437
977.775055911486,0.50402870616737,336072,105294
981.593340431682,0.500978742779454,344569,108717
985.407354593388,0.497213982065669,352611,112223
989.217098396603,0.493050481061701,360111,115714
993.022571841327,0.489144339670119,366167,118723
996.823774927561,0.486218095000493,371664,121320
1000.6207076553,0.483849246467677,377625,123940
1004.41337002455,0.47950226175748,382078,126663
1008.20176203532,0.477124633063,385659,128552
1013.24630860312,0.472119927696544,389120,131209
1017.02473644407,0.469221025218803,391395,132860
1020.79889392653,0.466302408344565,393075,134330
1024.5687810505,0.463115366871648,394198,135706
1028.33439781597,0.459398032569372,394758,137067
1032.09574422296,0.45728700973469,394830,137760
1035.85282027145,0.454845354322891,395361,138723
1039.60562596146,0.451299573881522,395072,139758
1043.35416129297,0.448291370440479,395287,140806
1048.34556562178,0.444047899833,394571,141931
1052.08413678348,0.4425246102699,394594,142438
1055.81843758669,0.439309277518549,394106,143319
1059.54846803141,0.437146280741953,394088,144028
1063.27422811764,0.434917821262469,394178,144802
1066.99571784538,0.432181024880778,393874,145605
1070.71293721462,0.429947113428471,394609,146629
1074.42588622538,0.427625385327456,395554,147768
1078.13456487764,0.425937745336495,397089,148919
1081.83897317142,0.422917275194999,398857,150626
1086.77154144991,0.420806378316902,400607,152024
1090.46598557387,0.418635076316334,403216,153781
1094.15615933934,0.416624561932288,405814,155490
1097.84206274632,0.413763900024471,407783,157277
1101.52369579481,0.412813056052171,411178,158934
1105.20105848481,0.410714562639615,414371,160944
1108.87415081632,0.409120516896443,418032,162963
1112.54297278934,0.407302984302359,421482,164997
1116.20752440387,0.406113523625313,425172,166898
1121.08695044336,0.403292510849961,431098,170327
1124.74153788807,0.401761751980317,435039,172491
1128.3918549743,0.399744226061325,439969,175258
1132.03790170203,0.398692729203119,444938,177667
1135.67967807127,0.397177686432889,449383,180069
1139.31718408202,0.396665381078347,454878,182486
1142.95041973428,0.395035379866122,460095,185273
1146.57938502805,0.393399052919321,465141,188012
1150.20407996333,0.392221960402335,470598,190734
1153.82450454012,0.391033098229518,476580,193688
1158.6450945293,0.390110391104676,484695,197405
1162.25555493627,0.388563135554455,490497,200481
1165.86174498476,0.387331375549472,497188,203793
1169.46366467475,0.386553873300193,503948,206934
1173.06131400625,0.385085830926366,510599,210375
1176.65469297927,0.38423333746088,518134,213899
1180.24380159379,0.383230608609511,524982,217227
1183.82863984982,0.381841303736677,533163,221319
1187.40920774736,0.380709794269169,541096,225198
1192.17665549754,0.379457176822617,551845,230335
1195.74725922527,0.3789072193057,560201,234119
1199.3135925945,0.37793182318148,568833,238261
1202.87565560525,0.37649447890824,577157,242549
1206.43344825751,0.375295118515258,585202,246610
1209.98697055127,0.373674472043178,594330,251393
1213.53622248654,0.37305919706802,603064,255449
1217.08120406333,0.371316338427838,611479,260055
1220.62191528162,0.370201323444656,620071,264387
1224.15835614142,0.36848033764005,628236,268932
1228.86696784128,0.367118270137236,639121,274451
1232.39344453127,0.366014874913046,646909,278502
1235.91565086277,0.364895291736759,654483,282490
1239.43358683578,0.363915226472355,661526,286175
1242.94725245029,0.362388429122959,668195,290078
1246.45664770632,0.361537255543288,674832,293534
1249.96177260386,0.360449743884403,680329,296667
1253.4626271429,0.359555765901094,686132,299814
1256.95921132345,0.358703661191113,691742,302859
1261.61468078432,0.357662806674047,701062,307676
1265.10130079506,0.356779986907745,708318,311493
1268.58365044731,0.355870227657129,714787,314997
1272.06172974107,0.354947153493563,721249,318521
1275.53553867634,0.353969632353467,727135,321844
1279.00507725312,0.35321050621082,732162,324636
1282.4703454714,0.352355712787812,737367,327588
1285.9313433312,0.352062140114888,742193,329955
1289.38807083251,0.351332601733787,746074,332238
1292.84052797532,0.35046136767725,749693,334520
1297.43716138587,0.349639813190022,754432,337272
1300.87965435887,0.348903455135612,757696,339306
1304.31787697338,0.348164284054838,760253,341031
1307.7518292294,0.347439547540808,762366,342550
1311.18151112693,0.347064927473752,764486,343799
1314.60692266597,0.346589296511972,766539,345100
1318.02806384652,0.34589190280221,767336,346014
1321.44493466858,0.345979182562917,768566,346499
1324.85753513215,0.345218128473783,769036,347319
1329.4010263037,0.344764142462549,769699,347982
1332.80366259745,0.344529699278757,769571,348112
1336.20202853272,0.344323049716942,769227,348122
1339.59612410949,0.34442642229413,768820,347855
1342.98594932777,0.343984615027352,767738,347719
1346.37150418756,0.344573667618159,766306,346600
1349.75278868886,0.34419407267985,764088,345899
1353.12980283167,0.344120619708343,761145,344625
1356.50254661599,0.344609855201159,759312,343408
1359.87102004182,0.344553418093585,755917,341917
1364.35567516305,0.344921993790006,753596,340578
1367.71418441907,0.344631714499043,751423,339823
1371.06842331659,0.344962631519076,748433,338213
1374.41839185563,0.345155896926723,743134,335669
1377.76409003617,0.345935245145482,737447,332503
1381.10551785823,0.346459390154769,731425,329390
1384.44267532179,0.346863321470449,725460,326400
1387.77556242686,0.348109897731931,719804,322927
1391.10417917344,0.349150148978266,714778,319905
1395.53569205567,0.351726344717555,708896,315396
1398.85434463244,0.354113020713743,705254,312056
1402.16872685072,0.356192070313309,701535,308928
1405.47883871051,0.359103220270174,698517,305544
1408.7846802118,0.361647421218341,695543,302466
1412.08625135461,0.364888770082646,693129,299175
1415.38355213892,0.367846655085542,690735,296118
1418.67658256475,0.370905435996144,688908,293262
1421.96534263208,0.373328969644337,687174,290896
1425.24983234092,0.375546262769341,685945,288897
1429.62250917284,0.377565003873547,683466,286518
1432.89703471187,0.379090317243306,682955,285300
1436.16728989241,0.380142545092345,681449,283982
1439.43327471445,0.380488585121152,680448,283339
1442.69498917801,0.380662120240229,679807,282959
1445.95243328308,0.381109442410808,678978,282323
1449.20560702965,0.380450781189169,677901,282303
1452.45451041774,0.380966260551352,675999,281177
1455.69914344733,0.380373935330045,673349,280457
1460.01867804025,0.380124990536061,670626,279483
1463.25334690003,0.379540393771015,668358,278913
1466.48374540132,0.379172947456738,664934,277719
1469.70987354412,0.378481903443573,661723,276818
1472.93173132843,0.377777500709469,658727,276012
1476.14931875425,0.377268021410706,655497,274981
1479.36263582158,0.376416497386853,651891,274005
1482.57168253042,0.375773026083325,647581,272597
1485.77645888076,0.37542368275154,643984,271301
1488.97696487262,0.374257753394691,639812,270268
1493.23766341522,0.373342081654305,633298,268081
1496.42820523726,0.372273626717745,628200,266578
1499.61447670082,0.371452097879751,623400,265042
1502.79647780588,0.370176791141337,617930,263489
1505.97420855245,0.369103158378881,612177,261682
1509.14766894053,0.368589721655984,606472,259550
1512.31685897012,0.367765513137778,600779,257602
1515.48177864122,0.367146527400997,594178,255135
1518.64242795382,0.365529771274296,587868,253367
1522.84998425743,0.364728612815776,578864,249947
1526.00066940022,0.363983185050549,572237,247510
1529.14708418453,0.363895881604416,564917,244393
1532.28922861034,0.363038589223942,557445,241637
1535.42710267766,0.362586586027011,549562,238468
1538.5607063865,0.361824156994687,541570,235413
1541.69003973684,0.361484806105729,532913,231831
1544.81510272869,0.361352461704131,524572,228272
1547.93589536205,0.360449806291707,515828,224934
1551.05241763692,0.360041348315326,507141,221354
1555.2011378902,0.359257267614314,495258,216558
1558.30769599526,0.359372631712615,486889,212842
1561.40998374183,0.358942756611722,477890,209115
1564.5080011299,0.35857677103375,469007,205401
1567.60174815948,0.358160537701813,459563,201458
1570.69122483058,0.358099526463709,450099,197337
1573.77643114318,0.358041518889433,440570,193185
1576.85736709729,0.356906976318806,431050,189505
1579.93403269291,0.357435869151894,421573,185113
1584.0296107072,0.35584439503516,408452,180010
1587.09631213301,0.355578983941834,398837,175880
1590.15874320033,0.354698023526916,389755,172224
1593.21690390916,0.35429339899387,379948,168047
1596.27079425949,0.353590174656406,371137,164416
1599.32041425134,0.352734570461179,361911,160645
1602.36576388469,0.353178274189736,353028,156542
1605.40684315956,0.351875431038504,343892,152949
1608.44365207593,0.351774271240627,334409,148766
1611.47619063381,0.351747463079636,325766,144930
1615.51293259778,0.350721720373136,313940,139999
1618.53550698585,0.349233957457833,304848,136411
1621.55381101543,0.348628481667881,296396,132814
1624.56784468652,0.349489352739212,287597,128616
1627.57760799912,0.347719631782242,279016,125288
1630.58310095323,0.346708528106042,270102,121568
1633.58432354884,0.346508466547011,261754,117865
1636.58127578597,0.346956164018504,253514,114037
1639.5739576646,0.346758197593121,245479,110473
1643.55755738958,0.346489146977923,234450,105575
1646.5402750984,0.345885335801923,226183,101994
1649.51872244873,0.346371932139557,218553,98443
1652.49289944057,0.345070783113757,210037,94891
1655.46280607392,0.345880363126663,202623,91371
1658.42844234878,0.347020803310868,194878,87648
1661.38980826515,0.347292096401701,186966,84037
1664.34690382303,0.347464169581701,179130,80483
1667.29972902242,0.3464025106542,170269,76689
1670.24828386331,0.348600571471195,161196,72236
1674.17304753796,0.349065900493012,146520,65589
1677.11163820905,0.352347378077221,134376,59700
1680.04595852164,0.352628062630464,120931,53692
1682.97600847574,0.352211958811093,106952,47531
1685.90178807136,0.354069776044575,93228,41255
1688.82329730848,0.356514770552519,80044,35222
1691.74053618711,0.356141229401786,68218,30044
1694.65350470725,0.355274253772481,57692,25459
1697.56220286889,0.357933434203526,49184,21572
1701.43382430455,0.350946697034699,39391,17557
