***Scan Config Information***,,,,,,,***Reference Scan Information***,,,,,,,,
Scan Config Name:,herbario,,,,,,Scan Config Name:,Local New Reference,,,,,,,
Scan Config Type:,Slew,Num Section:,1,,,,Scan Config Type:,Slew,Num Section:,1,,,,,
Section Config Type:,Column,,,,,,Section Config Type:,Column,,,,,,,
Start Wavelength (nm):,900,,,,,,Start Wavelength (nm):,900,,,,,,,
End Wavelength (nm):,1700,,,,,,End Wavelength (nm):,1700,,,,,,,
Pattern Width (nm):,7.03,,,,,,Pattern Width (nm):,7.03,,,,,,,
Exposure (ms):,0.635,,,,,,Exposure (ms):,0.635,,,,,,,
Digital Resolution:,228,,,,,,Digital Resolution:,228,,,,,,,
Num Repeats:,20,,,,,,Num Repeats:,20,,,,,,,
PGA Gain:,64,(FixedPGA),,,,,PGA Gain:,64,(AutoPGA),,,,,,
System Temp (C):,41.35,,,,,,System Temp (C):,41.21,,,,,,,
Humidity (%):,19.58,,,,,,Humidity (%):,19.67,,,,,,,
Lamp Indicator:,1120,,,,,,Lamp Indicator:,1124,,,,,,,
Data Date-Time:,2023/11/10T18:00:17,,,,,,Data Date-Time:,2023/11/10T17:58:27,,,,,,,
Total Measurement Time in sec:,6.7437821,,,,,,,,,,,,,,
,,,,,,,,,,,,,,,
***General Information***,,,,,,,***Calibration Coefficients***,,,,,,,,
Model Name:,NIR-S-G1,,,,,,Shift Vector Coefficients:,-5.08535400046452,0.0413457073195706,-8.39863846568903E-05,,,,,
Serial Number:,B07R011,(95UB122GC0AB07R011),,,,,Pixel to Wavelength Coefficients:,1794.37724621797,-0.920219689099738,-0.000237242138379873,,,,,
GUI Version:,3.9.4,Revision:,526,,,,Versions (Cal/Ref/Cfg):,1,3,1,,,,,
TIVA Version:,2.4.7,,,,,,***Lamp Usage ***,,,,,,,,
DLPC Version:,2.3.1,,,,,,Total Time(hh:mm:ss):,1hr 29min 29sec ,,,,,,,
UUID:,DE:67:0C:88:67:2B:47:21,,,,,,***Device/Error/Activation Status***,,,,,,,,
Main Board Version:,D,,,,,,Device Status:,0x00000001,Activation Status:,Activated,,,,,
Detector Board Version:,B,,,,,,Error status:,0x00000000,Error Code:,0x00000000000000000000000000000000,,,,,
,,,,,,,,,Error Details:,Not found,,,,,
***Scan Data***,,,,,,,,,,,,,,,
Wavelength (nm),Absorbance (AU),Reference Signal (unitless),Sample Signal (unitless)
901.81429527209,0.223978767109626,85845,51255
905.716563509274,0.222631706943746,93086,55751
909.614561387966,0.222938312832844,100572,60192
913.508288908168,0.221410622477894,109313,65654
917.397746069878,0.222832735027912,120334,72037
921.282932873098,0.22102210502914,133667,80353
925.163849317827,0.220385274621606,149708,90128
929.040495404065,0.22144457873299,168265,101053
932.912871131812,0.220843357430157,187256,112614
938.069395988934,0.219881410587621,211002,127176
941.931807546869,0.22031884355004,227263,136839
945.789948746314,0.220654861138171,241329,145196
949.643819587268,0.220103266789766,254022,153027
953.493420069731,0.220435194308134,265531,159838
957.338750193702,0.219825803225181,276655,166768
961.179809959184,0.221348026199009,287500,172699
965.016599366174,0.220598313627637,297567,179055
968.849118414673,0.220362976047363,307365,185051
973.952501032798,0.220262634483862,320411,192950
977.775055911486,0.220359653414114,329970,198662
981.593340431682,0.220228162284132,338370,203781
985.407354593388,0.220660857450705,346481,208458
989.217098396603,0.220343165071048,353514,212845
993.022571841327,0.220573791557819,359749,216484
996.823774927561,0.220288445911446,365267,219949
1000.6207076553,0.22011132150188,370704,223314
1004.41337002455,0.220853922749228,375587,225869
1008.20176203532,0.22057386110785,379044,228095
1013.24630860312,0.22035790655983,382219,230120
1017.02473644407,0.220022369632008,384410,231618
1020.79889392653,0.220401787074487,386339,232577
1024.5687810505,0.21961455522992,387319,233590
1028.33439781597,0.220354741484971,388179,233710
1032.09574422296,0.219589624199018,387955,233987
1035.85282027145,0.219705940861462,388447,234221
1039.60562596146,0.219307478084732,388278,234334
1043.35416129297,0.218935345991603,388308,234553
1048.34556562178,0.219122042003446,387834,234166
1052.08413678348,0.218863827018337,387721,234237
1055.81843758669,0.218926980493413,387390,234003
1059.54846803141,0.218834500540101,387286,233990
1063.27422811764,0.219028409943664,387555,234048
1066.99571784538,0.218576257091672,387423,234212
1070.71293721462,0.218455414720736,387980,234614
1074.42588622538,0.218182784851329,388781,235246
1078.13456487764,0.217873570032575,390022,236165
1081.83897317142,0.217830024168914,391872,237309
1086.77154144991,0.217712105072234,394024,238677
1090.46598557387,0.217688110394936,396277,240055
1094.15615933934,0.217738798452657,398874,241600
1097.84206274632,0.217063012914165,401155,243360
1101.52369579481,0.217003513245919,403986,245111
1105.20105848481,0.217083938876067,407338,247099
1108.87415081632,0.217133451118363,411028,249309
1112.54297278934,0.216999761961576,414122,251263
1116.20752440387,0.217520197353199,418102,253374
1121.08695044336,0.217004431857126,423498,256949
1124.74153788807,0.217169327040928,427766,259440
1128.3918549743,0.217769383782829,432855,262164
1132.03790170203,0.217473308301251,436906,264798
1135.67967807127,0.217811559230299,441931,267635
1139.31718408202,0.218177213310596,446886,270408
1142.95041973428,0.218064116708325,451946,273541
1146.57938502805,0.218781924856479,457435,276406
1150.20407996333,0.219166100115884,462438,279182
1153.82450454012,0.219863187447615,468387,282320
1158.6450945293,0.220318123955252,476310,286795
1162.25555493627,0.220340577737091,482264,290365
1165.86174498476,0.220993127925258,488485,293669
1169.46366467475,0.221340298804307,495403,297590
1173.06131400625,0.221175025243759,502197,301786
1176.65469297927,0.221551692125142,509085,305660
1180.24380159379,0.221599035001316,516383,310008
1183.82863984982,0.222490969086843,524248,314084
1187.40920774736,0.222451653967333,531978,318744
1192.17665549754,0.223031256654746,542455,324588
1195.74725922527,0.223072053959738,550460,329347
1199.3135925945,0.223684533110938,559095,334042
1202.87565560525,0.223472773552874,567274,339094
1206.43344825751,0.223836038608002,575628,343800
1209.98697055127,0.223573262549347,584411,349257
1213.53622248654,0.22360922099579,592850,354271
1217.08120406333,0.223276114882739,601298,359595
1220.62191528162,0.2233939974608,609560,364437
1224.15835614142,0.223151845745727,617714,369518
1228.86696784128,0.223011153758349,628393,376028
1232.39344453127,0.222527484352138,636090,381058
1235.91565086277,0.222800393624766,643567,385295
1239.43358683578,0.222462089227431,650478,389736
1242.94725245029,0.222612033619684,656992,393503
1246.45664770632,0.222347708421403,663627,397719
1249.96177260386,0.22229791027237,669120,401057
1253.4626271429,0.222434132581383,674345,404062
1256.95921132345,0.222199650107621,680161,407767
1261.61468078432,0.22242568412624,689235,412992
1265.10130079506,0.222395721378548,696510,417380
1268.58365044731,0.222395684770616,702913,421217
1272.06172974107,0.222506806962139,709339,424959
1275.53553867634,0.22276667479789,715018,428105
1279.00507725312,0.222385378123242,719914,431415
1282.4703454714,0.222546356707299,725229,434439
1285.9313433312,0.222606565634717,729794,437113
1289.38807083251,0.222172267477345,733678,439879
1292.84052797532,0.222767525696345,737385,441496
1297.43716138587,0.222766215280547,742228,444397
1300.87965435887,0.22295662892217,745237,446003
1304.31787697338,0.222851917583871,747655,447558
1307.7518292294,0.222899738642245,750083,448962
1311.18151112693,0.223175777284151,752011,449830
1314.60692266597,0.223353316440364,753817,450726
1318.02806384652,0.223665432390256,754692,450925
1321.44493466858,0.223927328000604,755864,451353
1324.85753513215,0.224298758749019,756618,451417
1329.4010263037,0.224741875658618,757132,451263
1332.80366259745,0.225187842764652,757055,450754
1336.20202853272,0.226014267885697,756683,449676
1339.59612410949,0.226821443130483,756275,448599
1342.98594932777,0.227837625763609,755566,447131
1346.37150418756,0.228773093574654,753998,445243
1349.75278868886,0.229713622167759,752011,443109
1353.12980283167,0.230746733578809,749231,440422
1356.50254661599,0.231137725354363,746921,438669
1359.87102004182,0.231976576751824,744124,436183
1364.35567516305,0.233006076589612,741249,433469
1367.71418441907,0.233983568467865,739656,431565
1371.06842331659,0.234822263084711,736427,428852
1374.41839185563,0.235816964280711,731861,425218
1377.76409003617,0.236752966041758,725930,420864
1381.10551785823,0.238215922085631,720048,416050
1384.44267532179,0.240001768613397,713961,410840
1387.77556242686,0.242065142273694,708629,405839
1391.10417917344,0.24488268842024,703621,400365
1395.53569205567,0.248836820476884,697633,393360
1398.85434463244,0.252397753901675,693989,388110
1402.16872685072,0.25657592518425,690351,382379
1405.47883871051,0.261229730509203,687686,376843
1408.7846802118,0.266837025990259,685104,370612
1412.08625135461,0.2721028405527,682085,364532
1415.38355213892,0.277001936238367,679871,359273
1418.67658256475,0.281716236205015,678105,354471
1421.96534263208,0.285972975859878,676454,350159
1425.24983234092,0.289644323800697,674694,346308
1429.62250917284,0.293826887375612,673221,342240
1432.89703471187,0.296152053697832,672233,339913
1436.16728989241,0.298536738324337,670957,337410
1439.43327471445,0.299975982897763,669986,335807
1442.69498917801,0.301055953292204,669256,334608
1445.95243328308,0.30154633402087,668234,333720
1449.20560702965,0.30200174049419,667107,332808
1452.45451041774,0.302471232502736,665244,331520
1455.69914344733,0.302025673662857,662880,330681
1460.01867804025,0.302511200875898,660246,328999
1463.25334690003,0.301673489955121,657840,328433
1466.48374540132,0.301087035909766,654832,327373
1469.70987354412,0.300047027757562,651388,326432
1472.93173132843,0.299291546837013,648475,325538
1476.14931875425,0.298231823447551,645283,324727
1479.36263582158,0.2975336563771,641832,323510
1482.57168253042,0.296234824823163,637696,322388
1485.77645888076,0.295620756455635,634000,320973
1488.97696487262,0.294346609863124,629736,319751
1493.23766341522,0.292847274790605,623448,317653
1496.42820523726,0.291909539199533,618913,316024
1499.61447670082,0.290810863387654,613874,314245
1502.79647780588,0.289587739823762,608797,312525
1505.97420855245,0.288462183662893,603108,310408
1509.14766894053,0.287499152731351,597573,308242
1512.31685897012,0.286688651042573,591658,305761
1515.48177864122,0.28539010471977,585053,303253
1518.64242795382,0.284174568168501,578839,300873
1522.84998425743,0.283429984963858,570121,296850
1526.00066940022,0.282467235326135,563650,294132
1529.14708418453,0.281781610960353,556491,290855
1532.28922861034,0.281240619133155,548982,287288
1535.42710267766,0.280957606302831,541381,283495
1538.5607063865,0.280300703961553,533521,279802
1541.69003973684,0.279590354873623,525082,275827
1544.81510272869,0.279118496384825,516759,271750
1547.93589536205,0.278917904860032,508391,267473
1551.05241763692,0.278742475012315,499634,262972
1555.2011378902,0.278292587428882,488190,257215
1558.30769599526,0.27773602834147,479539,252981
1561.40998374183,0.276912367545403,470932,248912
1564.5080011299,0.276896239760008,462191,244301
1567.60174815948,0.27660138053139,452861,239532
1570.69122483058,0.275834072643608,443299,234889
1573.77643114318,0.275990980010556,434212,229991
1576.85736709729,0.275674610147169,424578,225052
1579.93403269291,0.274978841706942,414991,220323
1584.0296107072,0.274561063666869,402498,213896
1587.09631213301,0.274869730228803,393107,208757
1590.15874320033,0.274316546320858,384183,204278
1593.21690390916,0.273369537727507,374438,199531
1596.27079425949,0.273201598051202,365653,194925
1599.32041425134,0.272762596936969,356772,190383
1602.36576388469,0.272275927071354,347803,185805
1605.40684315956,0.271210965825553,338793,181436
1608.44365207593,0.270984271513026,329503,176553
1611.47619063381,0.271020499655744,320969,171966
1615.51293259778,0.270106944693029,309028,165917
1618.53550698585,0.269880462454857,300514,161430
1621.55381101543,0.270572054572977,292045,156631
1624.56784468652,0.270122822356031,283501,152206
1627.57760799912,0.270039822906637,274981,147660
1630.58310095323,0.270534983811939,266506,142946
1633.58432354884,0.269883151299095,257960,138570
1636.58127578597,0.271162607948664,249873,133831
1639.5739576646,0.271293328660642,241725,129428
1643.55755738958,0.272946286567531,231012,123222
1646.5402750984,0.274158705481157,223179,118712
1649.51872244873,0.274218894139433,215153,114427
1652.49289944057,0.27605960959769,207379,109826
1655.46280607392,0.277137246246288,199800,105550
1658.42844234878,0.278715167912846,192092,101110
1661.38980826515,0.281033179113226,184674,96688
1664.34690382303,0.281621766191742,176576,92323
1667.29972902242,0.281615993493215,167904,87790
1670.24828386331,0.281467725790096,158876,83098
1674.17304753796,0.2821714276614,144254,75328
1677.11163820905,0.283368570981069,132345,68919
1680.04595852164,0.28310119568706,118776,61891
1682.97600847574,0.284210315255014,104942,54543
1685.90178807136,0.287860069086291,91720,47272
1688.82329730848,0.286526956731377,78773,40724
1691.74053618711,0.286090461034626,66918,34630
1694.65350470725,0.285111720798084,57027,29578
1697.56220286889,0.28529691318182,48169,24973
1701.43382430455,0.288681856665432,38834,19977
