***Scan Config Information***,,,,,,,***Reference Scan Information***,,,,,,,,
Scan Config Name:,herbario,,,,,,Scan Config Name:,Local New Reference,,,,,,,
Scan Config Type:,Slew,Num Section:,1,,,,Scan Config Type:,Slew,Num Section:,1,,,,,
Section Config Type:,Column,,,,,,Section Config Type:,Column,,,,,,,
Start Wavelength (nm):,900,,,,,,Start Wavelength (nm):,900,,,,,,,
End Wavelength (nm):,1700,,,,,,End Wavelength (nm):,1700,,,,,,,
Pattern Width (nm):,7.03,,,,,,Pattern Width (nm):,7.03,,,,,,,
Exposure (ms):,0.635,,,,,,Exposure (ms):,0.635,,,,,,,
Digital Resolution:,228,,,,,,Digital Resolution:,228,,,,,,,
Num Repeats:,20,,,,,,Num Repeats:,20,,,,,,,
PGA Gain:,64,(FixedPGA),,,,,PGA Gain:,64,(AutoPGA),,,,,,
System Temp (C):,41.31,,,,,,System Temp (C):,41.15,,,,,,,
Humidity (%):,18.88,,,,,,Humidity (%):,19.07,,,,,,,
Lamp Indicator:,1118,,,,,,Lamp Indicator:,1123,,,,,,,
Data Date-Time:,2023/11/10T18:23:24,,,,,,Data Date-Time:,2023/11/10T18:22:47,,,,,,,
Total Measurement Time in sec:,6.7907181,,,,,,,,,,,,,,
,,,,,,,,,,,,,,,
***General Information***,,,,,,,***Calibration Coefficients***,,,,,,,,
Model Name:,NIR-S-G1,,,,,,Shift Vector Coefficients:,-5.08535400046452,0.0413457073195706,-8.39863846568903E-05,,,,,
Serial Number:,B07R011,(95UB122GC0AB07R011),,,,,Pixel to Wavelength Coefficients:,1794.37724621797,-0.920219689099738,-0.000237242138379873,,,,,
GUI Version:,3.9.4,Revision:,526,,,,Versions (Cal/Ref/Cfg):,1,3,1,,,,,
TIVA Version:,2.4.7,,,,,,***Lamp Usage ***,,,,,,,,
DLPC Version:,2.3.1,,,,,,Total Time(hh:mm:ss):,1hr 33min 16sec ,,,,,,,
UUID:,DE:67:0C:88:67:2B:47:21,,,,,,***Device/Error/Activation Status***,,,,,,,,
Main Board Version:,D,,,,,,Device Status:,0x00000001,Activation Status:,Activated,,,,,
Detector Board Version:,B,,,,,,Error status:,0x00000000,Error Code:,0x00000000000000000000000000000000,,,,,
,,,,,,,,,Error Details:,Not found,,,,,
***Scan Data***,,,,,,,,,,,,,,,
Wavelength (nm),Absorbance (AU),Reference Signal (unitless),Sample Signal (unitless)
901.81429527209,0.263337955384358,86250,47035
905.716563509274,0.264180984478675,93550,50917
909.614561387966,0.260204450556084,100868,55405
913.508288908168,0.260388708565819,109859,60318
917.397746069878,0.259424105910452,120708,66422
921.282932873098,0.258454483223791,134000,73901
925.163849317827,0.25797465435332,150356,83013
929.040495404065,0.257299413525072,168977,93439
932.912871131812,0.255337715214236,187824,104331
938.069395988934,0.255310999561929,212111,117829
941.931807546869,0.25424654088636,228145,127047
945.789948746314,0.25314229249304,242300,135273
949.643819587268,0.252996445168508,254597,142186
953.493420069731,0.252672227340592,266497,148943
957.338750193702,0.252270919044272,277679,155336
961.179809959184,0.251810682433271,288442,161528
965.016599366174,0.252147357735388,298593,167083
968.849118414673,0.251932373084757,308707,172828
973.952501032798,0.252116701792381,321899,180137
977.775055911486,0.251768750945915,331567,185696
981.593340431682,0.251827758348573,339982,190383
985.407354593388,0.251716383808359,347852,194840
989.217098396603,0.251367962859994,355085,199051
993.022571841327,0.250936665327363,361444,202817
996.823774927561,0.251152286736331,366837,205741
1000.6207076553,0.250932558810973,372511,209029
1004.41337002455,0.250991308070827,376962,211498
1008.20176203532,0.251104464677607,380444,213396
1013.24630860312,0.250348472257136,383687,215590
1017.02473644407,0.250623203944367,386122,216821
1020.79889392653,0.250010545963144,387701,218015
1024.5687810505,0.250232016053115,389146,218716
1028.33439781597,0.250288942354826,389302,218775
1032.09574422296,0.250621529900678,389846,218913
1035.85282027145,0.250016997951298,390184,219408
1039.60562596146,0.249942082303234,389898,219285
1043.35416129297,0.249741955108477,390200,219556
1048.34556562178,0.249441060741212,389349,219229
1052.08413678348,0.248541919981885,388822,219386
1055.81843758669,0.249200479305377,388876,219084
1059.54846803141,0.248183859031741,388560,219419
1063.27422811764,0.248365551421259,388797,219461
1066.99571784538,0.24838710597877,388935,219528
1070.71293721462,0.248002750420742,389322,219941
1074.42588622538,0.247503011890262,390119,220645
1078.13456487764,0.247564540291543,391474,221380
1081.83897317142,0.24743074967116,393473,222579
1086.77154144991,0.247862597578334,395634,223579
1090.46598557387,0.247084878080636,397498,225035
1094.15615933934,0.247333782385353,400278,226479
1097.84206274632,0.246663636268076,402419,228042
1101.52369579481,0.247205540598541,405388,229438
1105.20105848481,0.246583664946629,408506,231534
1108.87415081632,0.247576513301786,412090,233032
1112.54297278934,0.246685493021811,415442,235410
1116.20752440387,0.247438399722134,419253,237158
1121.08695044336,0.24773731885295,424962,240222
1124.74153788807,0.247939500970918,428935,242355
1128.3918549743,0.24800692598436,433542,244920
1132.03790170203,0.248348143908702,438634,247602
1135.67967807127,0.248959465166688,443231,249845
1139.31718408202,0.248804805462253,447911,252573
1142.95041973428,0.249125831192768,453112,255317
1146.57938502805,0.249247982755608,458384,258215
1150.20407996333,0.250254061482552,463673,260590
1153.82450454012,0.251126189660618,469615,263400
1158.6450945293,0.251204486402953,477528,267790
1162.25555493627,0.251644444368218,483567,270902
1165.86174498476,0.252142264532742,489792,274075
1169.46366467475,0.252500831373396,496562,277634
1173.06131400625,0.252481613773345,503059,281279
1176.65469297927,0.252869144064737,510228,285033
1180.24380159379,0.252899419669767,517376,289006
1183.82863984982,0.253434117036591,525269,293054
1187.40920774736,0.253374675056208,533260,297553
1192.17665549754,0.253814011796595,543706,303075
1195.74725922527,0.253800459632388,551828,307612
1199.3135925945,0.253914944333611,560242,312220
1202.87565560525,0.254373590742912,568734,316618
1206.43344825751,0.2543231601042,576876,321188
1209.98697055127,0.254155158008397,585847,326309
1213.53622248654,0.254054451496243,594458,331182
1217.08120406333,0.253590736636612,602744,336157
1220.62191528162,0.253572747991216,610990,340770
1224.15835614142,0.253161757027218,619252,345705
1228.86696784128,0.25261332045929,629752,352011
1232.39344453127,0.252751943478027,637829,356412
1235.91565086277,0.252526169186225,645017,360616
1239.43358683578,0.252114249319196,652202,364979
1242.94725245029,0.252337372699769,658902,368539
1246.45664770632,0.252245283584184,665410,372258
1249.96177260386,0.252164146827908,671035,375475
1253.4626271429,0.252097578734186,676350,378507
1256.95921132345,0.25216191949498,682044,381637
1261.61468078432,0.251721278210378,691186,387145
1265.10130079506,0.251540306181607,698040,391147
1268.58365044731,0.251997197716638,704897,394574
1272.06172974107,0.251633341112285,711161,398414
1275.53553867634,0.251656753170088,716742,401519
1279.00507725312,0.251819836586672,721922,404269
1282.4703454714,0.25167169749995,727224,407377
1285.9313433312,0.251909972023502,731933,409790
1289.38807083251,0.25173471323432,735512,411960
1292.84052797532,0.251753221034578,739150,413980
1297.43716138587,0.252128829277046,743939,416302
1300.87965435887,0.251824725312503,746813,418203
1304.31787697338,0.251984006400928,749738,419687
1307.7518292294,0.252082461774394,751995,420855
1311.18151112693,0.252409560134207,754103,421717
1314.60692266597,0.252379177602224,755613,422591
1318.02806384652,0.252886185810187,756757,422737
1321.44493466858,0.253317180872831,757770,422883
1324.85753513215,0.253567326356478,758610,423108
1329.4010263037,0.254383463068056,759031,422548
1332.80366259745,0.25507185207508,759098,421916
1336.20202853272,0.25570883746225,758623,421034
1339.59612410949,0.256505206265002,758333,420102
1342.98594932777,0.257530228482579,757438,418617
1346.37150418756,0.258230036664186,755787,417032
1349.75278868886,0.259254207476902,753733,414919
1353.12980283167,0.260819409726596,751304,412094
1356.50254661599,0.261383565596565,749075,410338
1359.87102004182,0.262416183453905,746225,407806
1364.35567516305,0.263922988977064,743466,404891
1367.71418441907,0.264696895403899,741297,402991
1371.06842331659,0.265690307324267,738413,400506
1374.41839185563,0.266666755949319,733700,397056
1377.76409003617,0.268193645166962,727678,392415
1381.10551785823,0.269527339435871,721663,387978
1384.44267532179,0.271174180122936,715773,383355
1387.77556242686,0.273784923279501,710216,378099
1391.10417917344,0.276434788881715,705066,373074
1395.53569205567,0.281090129343128,699436,366149
1398.85434463244,0.285550629862376,695735,360490
1402.16872685072,0.28990506894007,692026,354991
1405.47883871051,0.295503386742674,689087,348956
1408.7846802118,0.301929941167906,686455,342517
1412.08625135461,0.307932335341052,683871,336544
1415.38355213892,0.31368218082183,681481,330957
1418.67658256475,0.319631971877956,679613,325559
1421.96534263208,0.325006797768458,678206,320889
1425.24983234092,0.329526978053406,676426,316733
1429.62250917284,0.334718488333632,674506,312081
1432.89703471187,0.337586089116048,673655,309636
1436.16728989241,0.340587526542591,672092,306790
1439.43327471445,0.34277268940382,671301,304891
1442.69498917801,0.344390816469135,670567,303425
1445.95243328308,0.34558885329887,669698,302197
1449.20560702965,0.346331486028595,668551,301164
1452.45451041774,0.346985463534822,667024,300024
1455.69914344733,0.346608351143504,664417,299111
1460.01867804025,0.346746867705572,661687,297787
1463.25334690003,0.34616513545007,659441,297174
1466.48374540132,0.345405812262083,656034,296156
1469.70987354412,0.344212397236542,652937,295569
1472.93173132843,0.344108027126363,650068,294341
1476.14931875425,0.342723330961145,646790,293792
1479.36263582158,0.340860283243723,643002,293327
1482.57168253042,0.339580026274186,639234,292469
1485.77645888076,0.33882011005064,635363,291207
1488.97696487262,0.337210766131942,631350,290442
1493.23766341522,0.335557196749281,624728,288492
1496.42820523726,0.334308631513825,620216,287233
1499.61447670082,0.333174051649289,615040,285581
1502.79647780588,0.331699961687583,609906,284160
1505.97420855245,0.33056175397446,604497,282379
1509.14766894053,0.329498288835742,598833,280419
1512.31685897012,0.328294162715234,592771,278351
1515.48177864122,0.327193314073873,586612,276158
1518.64242795382,0.325676769735726,580287,274136
1522.84998425743,0.324879581642235,571460,270462
1526.00066940022,0.323556100658678,564851,268150
1529.14708418453,0.323101481518492,557842,265100
1532.28922861034,0.32233173531612,550082,261876
1535.42710267766,0.321770508249817,542604,258650
1538.5607063865,0.32091972290635,534727,255395
1541.69003973684,0.320168322188426,526226,251770
1544.81510272869,0.319896140793122,517750,247870
1547.93589536205,0.320032452511398,509678,243929
1551.05241763692,0.319291488209878,500791,240085
1555.2011378902,0.318663594143944,489374,234951
1558.30769599526,0.318023325972655,481068,231304
1561.40998374183,0.317621211027511,472438,227365
1564.5080011299,0.31758991002262,463264,222966
1567.60174815948,0.3175535210194,454086,218567
1570.69122483058,0.31714112655457,444593,214201
1573.77643114318,0.316028604935243,435073,210152
1576.85736709729,0.316153368395463,425906,205665
1579.93403269291,0.315903882807833,416145,201067
1584.0296107072,0.315504665521396,403815,195289
1587.09631213301,0.315040024470411,394588,191031
1590.15874320033,0.314277577244903,385479,186949
1593.21690390916,0.313672480298529,375870,182543
1596.27079425949,0.312968473673518,366956,178503
1599.32041425134,0.31218906625195,357979,174449
1602.36576388469,0.311457225613283,349061,170390
1605.40684315956,0.311201001006705,340080,166104
1608.44365207593,0.310912215810524,330878,161717
1611.47619063381,0.309859231993498,321941,157731
1615.51293259778,0.310034221337174,310387,152009
1618.53550698585,0.309501316374396,301549,147862
1621.55381101543,0.309237568164358,293144,143828
1624.56784468652,0.309235966451051,284332,139505
1627.57760799912,0.309037522062773,276314,135633
1630.58310095323,0.308805112079833,267590,131421
1633.58432354884,0.309257742078258,259235,127185
1636.58127578597,0.308651814385463,250736,123187
1639.5739576646,0.309243219412994,242501,118979
1643.55755738958,0.31133013206458,231932,113248
1646.5402750984,0.312148155092221,223971,109155
1649.51872244873,0.312598991876732,216039,105180
1652.49289944057,0.315415218865373,208007,100615
1655.46280607392,0.316307247788637,200517,96793
1658.42844234878,0.317948078731323,192900,92765
1661.38980826515,0.319245563563711,185074,88736
1664.34690382303,0.320706088656306,176973,84567
1667.29972902242,0.320735830678415,168574,80548
1670.24828386331,0.322273133196274,159729,76052
1674.17304753796,0.322298143980689,145422,69236
1677.11163820905,0.321428558744641,132902,63402
1680.04595852164,0.323052993925736,119667,56875
1682.97600847574,0.322295206892138,105848,50395
1685.90178807136,0.320834240912958,92133,44013
1688.82329730848,0.323779563999464,79025,37496
1691.74053618711,0.320890383890608,67382,32185
1694.65350470725,0.321928026840488,57088,27203
1697.56220286889,0.326736925006736,48491,22852
1701.43382430455,0.325649863278665,38866,18362
