***Scan Config Information***,,,,,,,***Reference Scan Information***,,,,,,,,
Scan Config Name:,herbario,,,,,,Scan Config Name:,Local New Reference,,,,,,,
Scan Config Type:,Slew,Num Section:,1,,,,Scan Config Type:,Slew,Num Section:,1,,,,,
Section Config Type:,Column,,,,,,Section Config Type:,Column,,,,,,,
Start Wavelength (nm):,900,,,,,,Start Wavelength (nm):,900,,,,,,,
End Wavelength (nm):,1700,,,,,,End Wavelength (nm):,1700,,,,,,,
Pattern Width (nm):,7.03,,,,,,Pattern Width (nm):,7.03,,,,,,,
Exposure (ms):,0.635,,,,,,Exposure (ms):,0.635,,,,,,,
Digital Resolution:,228,,,,,,Digital Resolution:,228,,,,,,,
Num Repeats:,20,,,,,,Num Repeats:,20,,,,,,,
PGA Gain:,64,(FixedPGA),,,,,PGA Gain:,64,(AutoPGA),,,,,,
System Temp (C):,41.33,,,,,,System Temp (C):,41.18,,,,,,,
Humidity (%):,25.94,,,,,,Humidity (%):,26.12,,,,,,,
Lamp Indicator:,1121,,,,,,Lamp Indicator:,1125,,,,,,,
Data Date-Time:,2023/11/10T13:59:12,,,,,,Data Date-Time:,2023/11/10T13:57:34,,,,,,,
Total Measurement Time in sec:,6.6016179,,,,,,,,,,,,,,
,,,,,,,,,,,,,,,
***General Information***,,,,,,,***Calibration Coefficients***,,,,,,,,
Model Name:,NIR-S-G1,,,,,,Shift Vector Coefficients:,-5.08535400046452,0.0413457073195706,-8.39863846568903E-05,,,,,
Serial Number:,B07R011,(95UB122GC0AB07R011),,,,,Pixel to Wavelength Coefficients:,1794.37724621797,-0.920219689099738,-0.000237242138379873,,,,,
GUI Version:,3.9.4,Revision:,526,,,,Versions (Cal/Ref/Cfg):,1,3,1,,,,,
TIVA Version:,2.4.7,,,,,,***Lamp Usage ***,,,,,,,,
DLPC Version:,2.3.1,,,,,,Total Time(hh:mm:ss):,56min 36sec ,,,,,,,
UUID:,DE:67:0C:88:67:2B:47:21,,,,,,***Device/Error/Activation Status***,,,,,,,,
Main Board Version:,D,,,,,,Device Status:,0x00000001,Activation Status:,Activated,,,,,
Detector Board Version:,B,,,,,,Error status:,0x00000000,Error Code:,0x00000000000000000000000000000000,,,,,
,,,,,,,,,Error Details:,Not found,,,,,
***Scan Data***,,,,,,,,,,,,,,,
Wavelength (nm),Absorbance (AU),Reference Signal (unitless),Sample Signal (unitless)
901.81429527209,0.221575327268306,86274,51797
905.716563509274,0.220273601373372,93482,56293
909.614561387966,0.218188962999162,101230,61252
913.508288908168,0.219273841298414,110372,66617
917.397746069878,0.219114609693449,121501,73361
921.282932873098,0.217502315773456,134748,81662
925.163849317827,0.216719250089558,151164,91776
929.040495404065,0.215916343185076,169895,103339
932.912871131812,0.214502625919283,189109,115401
938.069395988934,0.213875930013373,213141,130254
941.931807546869,0.215244348068426,229257,139662
945.789948746314,0.21279059853074,243023,148887
949.643819587268,0.212841094560694,255915,156767
953.493420069731,0.21256478033864,267549,163998
957.338750193702,0.212524299061171,279031,171052
961.179809959184,0.211745193155161,289558,177824
965.016599366174,0.211630055796837,299978,184272
968.849118414673,0.210982731823397,310157,190809
973.952501032798,0.210827833085808,323174,198888
977.775055911486,0.210155115521835,332645,205034
981.593340431682,0.21061633359523,341387,210199
985.407354593388,0.210339638166501,349569,215374
989.217098396603,0.209624695641494,356806,220195
993.022571841327,0.209791059694825,363101,223994
996.823774927561,0.209349911451282,368350,227463
1000.6207076553,0.209339678975703,374090,231013
1004.41337002455,0.208958789211089,378721,234078
1008.20176203532,0.209498449271201,382239,235959
1013.24630860312,0.209234529403691,385698,238239
1017.02473644407,0.209352772715723,388122,239671
1020.79889392653,0.208489718835211,389682,241113
1024.5687810505,0.208603256887878,390749,241710
1028.33439781597,0.208083378677783,391126,242233
1032.09574422296,0.208422755573559,391679,242386
1035.85282027145,0.207787104935835,391779,242803
1039.60562596146,0.207817997401897,391610,242681
1043.35416129297,0.207508092535821,391787,242964
1048.34556562178,0.207604265122662,391327,242625
1052.08413678348,0.207247790220548,390877,242545
1055.81843758669,0.207444895536488,390682,242314
1059.54846803141,0.207410573006145,390714,242353
1063.27422811764,0.207508630620949,390670,242271
1066.99571784538,0.20690362095772,390730,242646
1070.71293721462,0.207217412823907,391404,242889
1074.42588622538,0.206848427933261,392094,243524
1078.13456487764,0.206837530922859,393501,244404
1081.83897317142,0.207060419297579,395214,245342
1086.77154144991,0.207009007483307,397427,246745
1090.46598557387,0.207566513192887,399847,247929
1094.15615933934,0.207294427063238,402264,249584
1097.84206274632,0.207162715623631,404488,251040
1101.52369579481,0.20747197303304,407672,252836
1105.20105848481,0.207536203631068,410885,254791
1108.87415081632,0.207852666140441,414630,256926
1112.54297278934,0.207268229038593,417755,259211
1116.20752440387,0.207820962559446,421537,261225
1121.08695044336,0.208033919726152,427233,264625
1124.74153788807,0.2081735288437,431185,266987
1128.3918549743,0.208631633590999,436259,269844
1132.03790170203,0.208613160680876,440822,272678
1135.67967807127,0.208367902211517,445430,275684
1139.31718408202,0.209119971140963,450708,278468
1142.95041973428,0.209387517286925,455901,281503
1146.57938502805,0.209622326832062,461012,284505
1150.20407996333,0.210381910144938,466554,287422
1153.82450454012,0.211083141520736,472644,290704
1158.6450945293,0.211143931230346,480504,295497
1162.25555493627,0.211477278729522,486388,298886
1165.86174498476,0.211583511046185,492764,302730
1169.46366467475,0.212483932513491,499569,306275
1173.06131400625,0.212459722696333,506610,310609
1176.65469297927,0.212429579909383,513865,315079
1180.24380159379,0.213259427553921,520897,318781
1183.82863984982,0.213606984393812,528884,323410
1187.40920774736,0.213422691841216,536841,328415
1192.17665549754,0.21356242124926,547366,334746
1195.74725922527,0.214070022035513,555594,339381
1199.3135925945,0.214380784354462,564373,344497
1202.87565560525,0.214163224621208,572754,349788
1206.43344825751,0.214202363758123,580910,354737
1209.98697055127,0.214043709291136,590081,360469
1213.53622248654,0.213772087591353,598381,365768
1217.08120406333,0.213651468742662,606883,371068
1220.62191528162,0.213200028126202,615441,376692
1224.15835614142,0.212828364135469,624025,382273
1228.86696784128,0.212145467849556,634561,389339
1232.39344453127,0.211923425951334,642455,394384
1235.91565086277,0.211513053643359,649774,399254
1239.43358683578,0.2114037824502,656986,403787
1242.94725245029,0.21158152629964,663857,407843
1246.45664770632,0.210928512855916,670448,412512
1249.96177260386,0.211232734452204,676002,415638
1253.4626271429,0.210914301838269,681567,419367
1256.95921132345,0.210944921818598,687281,422853
1261.61468078432,0.210841283177843,696428,428583
1265.10130079506,0.210564225924788,703652,433305
1268.58365044731,0.210796124996826,710306,437169
1272.06172974107,0.211201004578457,716898,440815
1275.53553867634,0.210843295479711,722390,444558
1279.00507725312,0.210548006044567,727576,448054
1282.4703454714,0.210665677598263,732776,451134
1285.9313433312,0.210624296035756,737551,454117
1289.38807083251,0.21057174388437,741520,456616
1292.84052797532,0.21037196500333,744987,458962
1297.43716138587,0.210325221681585,749896,462036
1300.87965435887,0.210134269416807,752798,464028
1304.31787697338,0.210545002130879,755683,465366
1307.7518292294,0.210710164430869,758066,466656
1311.18151112693,0.21065307984003,760112,467977
1314.60692266597,0.210837400597395,761681,468744
1318.02806384652,0.211100642228673,762894,469206
1321.44493466858,0.211184087493949,763735,469633
1324.85753513215,0.211334141698215,764744,470091
1329.4010263037,0.212113798205851,765300,469589
1332.80366259745,0.212295498760656,765242,469357
1336.20202853272,0.2125592178034,764604,468681
1339.59612410949,0.213502869427041,764575,467646
1342.98594932777,0.214022162637595,763442,466395
1346.37150418756,0.214654990292331,761457,464505
1349.75278868886,0.21544198028484,759368,462392
1353.12980283167,0.216236559656505,756448,459772
1356.50254661599,0.217207078792161,754262,457420
1359.87102004182,0.21754736178228,750957,455059
1364.35567516305,0.218621634738367,748509,452455
1367.71418441907,0.219465211394384,746631,450444
1371.06842331659,0.219791282535269,743637,448301
1374.41839185563,0.2202045732416,738811,444968
1377.76409003617,0.221053159776162,732442,440271
1381.10551785823,0.221682956721843,726336,435968
1384.44267532179,0.222929382832541,720813,431413
1387.77556242686,0.224190687613798,715136,426774
1391.10417917344,0.225658024443315,709965,422259
1395.53569205567,0.22789894083088,704182,416664
1398.85434463244,0.2303434311312,700614,412226
1402.16872685072,0.233021078118623,697007,407583
1405.47883871051,0.236388159024472,694356,402897
1408.7846802118,0.239631797540901,691451,398226
1412.08625135461,0.242966488401378,688767,393646
1415.38355213892,0.246869873192514,686481,388829
1418.67658256475,0.250576066418643,684802,384582
1421.96534263208,0.25425108392912,683151,380422
1425.24983234092,0.256954412041847,681768,377296
1429.62250917284,0.260821174606676,679889,372921
1432.89703471187,0.26305271123013,679096,370577
1436.16728989241,0.26508541536888,677182,367807
1439.43327471445,0.266471326842737,676720,366385
1442.69498917801,0.267311173694187,675787,365173
1445.95243328308,0.268421654776609,675070,363854
1449.20560702965,0.269159631354758,673921,362618
1452.45451041774,0.269281371557596,671894,361426
1455.69914344733,0.269588297318582,669772,360030
1460.01867804025,0.270428550130412,666920,357804
1463.25334690003,0.270249434052069,664521,356664
1466.48374540132,0.270134487754779,661309,355034
1469.70987354412,0.269985136249729,658175,353473
1472.93173132843,0.269781769669956,654943,351902
1476.14931875425,0.269380707477339,651884,350582
1479.36263582158,0.268862065528968,648088,348957
1482.57168253042,0.268518182817309,644398,347245
1485.77645888076,0.267960132368316,640038,345339
1488.97696487262,0.267681187278656,636182,343479
1493.23766341522,0.267104210084087,629668,340414
1496.42820523726,0.266479974821088,625184,338476
1499.61447670082,0.265765478506813,619963,336202
1502.79647780588,0.26511832577148,614665,333826
1505.97420855245,0.264472563025479,609023,331254
1509.14766894053,0.263603563789009,603090,328684
1512.31685897012,0.263198311982704,597523,325954
1515.48177864122,0.262069848181956,590884,323171
1518.64242795382,0.261382869971783,584563,320220
1522.84998425743,0.260542929938092,575630,315937
1526.00066940022,0.259842686969049,568969,312785
1529.14708418453,0.259580205621188,562057,309172
1532.28922861034,0.259064071214141,554208,305217
1535.42710267766,0.258584912428103,546427,301264
1538.5607063865,0.258236335620763,538549,297159
1541.69003973684,0.257660356543911,529915,292783
1544.81510272869,0.25794406826888,521702,288057
1547.93589536205,0.25746009106202,512933,283531
1551.05241763692,0.25703523989182,504219,278987
1555.2011378902,0.256596508193076,492709,272894
1558.30769599526,0.25668567548887,484077,268058
1561.40998374183,0.256457311713317,475334,263355
1564.5080011299,0.256126344499743,466268,258529
1567.60174815948,0.256266275226868,456943,253277
1570.69122483058,0.256313806803694,447634,248090
1573.77643114318,0.255794410811136,437798,242929
1576.85736709729,0.255709655087195,428599,237871
1579.93403269291,0.255390444968597,419107,232774
1584.0296107072,0.255303521668605,406073,225580
1587.09631213301,0.25452121738655,396904,220884
1590.15874320033,0.253773840622139,387588,216071
1593.21690390916,0.253872716301045,377966,210659
1596.27079425949,0.253594760287499,369243,205929
1599.32041425134,0.252354814438642,360014,201356
1602.36576388469,0.25202310103513,351101,196521
1605.40684315956,0.251428309985743,341946,191659
1608.44365207593,0.250886638479445,332808,186770
1611.47619063381,0.250610081495529,324011,181949
1615.51293259778,0.250065666224437,312121,175492
1618.53550698585,0.24925839265145,303306,170853
1621.55381101543,0.248980882837763,294632,166073
1624.56784468652,0.24973176940784,286096,160983
1627.57760799912,0.249545802087177,277635,156289
1630.58310095323,0.248352855426935,268905,151791
1633.58432354884,0.248405465734811,260566,147066
1636.58127578597,0.248590901345888,252233,142302
1639.5739576646,0.24892329194786,244096,137606
1643.55755738958,0.249550700183411,233085,131209
1646.5402750984,0.249521114948801,225232,126797
1649.51872244873,0.249630925865094,216995,122129
1652.49289944057,0.251186274047181,209218,117331
1655.46280607392,0.251798570657012,201367,112769
1658.42844234878,0.252606510708422,193908,108390
1661.38980826515,0.253186865452598,185961,103809
1664.34690382303,0.254448316830046,178146,99158
1667.29972902242,0.25505150979611,169355,94134
1670.24828386331,0.256060315752205,160123,88796
1674.17304753796,0.256222919733737,145470,80640
1677.11163820905,0.256368004194214,132894,73644
1680.04595852164,0.255864646977424,119337,66208
1682.97600847574,0.256648610316483,105450,58398
1685.90178807136,0.258403436349496,91991,50739
1688.82329730848,0.262981955500807,78920,43073
1691.74053618711,0.258720246576321,66875,36859
1694.65350470725,0.262388098909906,56945,31122
1697.56220286889,0.261519099389339,48108,26345
1701.43382430455,0.265418787951457,38559,20927
