***Scan Config Information***,,,,,,,***Reference Scan Information***,,,,,,,,
Scan Config Name:,herbario,,,,,,Scan Config Name:,Local New Reference,,,,,,,
Scan Config Type:,Slew,Num Section:,1,,,,Scan Config Type:,Slew,Num Section:,1,,,,,
Section Config Type:,Column,,,,,,Section Config Type:,Column,,,,,,,
Start Wavelength (nm):,900,,,,,,Start Wavelength (nm):,900,,,,,,,
End Wavelength (nm):,1700,,,,,,End Wavelength (nm):,1700,,,,,,,
Pattern Width (nm):,7.03,,,,,,Pattern Width (nm):,7.03,,,,,,,
Exposure (ms):,0.635,,,,,,Exposure (ms):,0.635,,,,,,,
Digital Resolution:,228,,,,,,Digital Resolution:,228,,,,,,,
Num Repeats:,20,,,,,,Num Repeats:,20,,,,,,,
PGA Gain:,64,(FixedPGA),,,,,PGA Gain:,64,(AutoPGA),,,,,,
System Temp (C):,41.28,,,,,,System Temp (C):,41.23,,,,,,,
Humidity (%):,17.88,,,,,,Humidity (%):,17.98,,,,,,,
Lamp Indicator:,1116,,,,,,Lamp Indicator:,1123,,,,,,,
Data Date-Time:,2023/11/10T19:04:14,,,,,,Data Date-Time:,2023/11/10T19:03:16,,,,,,,
Total Measurement Time in sec:,6.738688,,,,,,,,,,,,,,
,,,,,,,,,,,,,,,
***General Information***,,,,,,,***Calibration Coefficients***,,,,,,,,
Model Name:,NIR-S-G1,,,,,,Shift Vector Coefficients:,-5.08535400046452,0.0413457073195706,-8.39863846568903E-05,,,,,
Serial Number:,B07R011,(95UB122GC0AB07R011),,,,,Pixel to Wavelength Coefficients:,1794.37724621797,-0.920219689099738,-0.000237242138379873,,,,,
GUI Version:,3.9.4,Revision:,526,,,,Versions (Cal/Ref/Cfg):,1,3,1,,,,,
TIVA Version:,2.4.7,,,,,,***Lamp Usage ***,,,,,,,,
DLPC Version:,2.3.1,,,,,,Total Time(hh:mm:ss):,1hr 40min 13sec ,,,,,,,
UUID:,DE:67:0C:88:67:2B:47:21,,,,,,***Device/Error/Activation Status***,,,,,,,,
Main Board Version:,D,,,,,,Device Status:,0x00000001,Activation Status:,Activated,,,,,
Detector Board Version:,B,,,,,,Error status:,0x00000000,Error Code:,0x00000000000000000000000000000000,,,,,
,,,,,,,,,Error Details:,Not found,,,,,
***Scan Data***,,,,,,,,,,,,,,,
Wavelength (nm),Absorbance (AU),Reference Signal (unitless),Sample Signal (unitless)
901.81429527209,0.37580236740171,86088,36236
905.716563509274,0.369764843639138,93217,39786
909.614561387966,0.371157514525771,100770,42872
913.508288908168,0.369378254157305,109773,46894
917.397746069878,0.366811830621219,120501,51782
921.282932873098,0.365285616418269,133797,57698
925.163849317827,0.366689991595954,150078,64510
929.040495404065,0.362946096202409,168284,72962
932.912871131812,0.362798814359454,187537,81337
938.069395988934,0.360968202426768,211407,92077
941.931807546869,0.36074976573142,227532,99150
945.789948746314,0.360458464417945,241740,105412
949.643819587268,0.359176441422516,254239,111190
953.493420069731,0.358728700204879,265857,116391
957.338750193702,0.358103935970741,277137,121504
961.179809959184,0.358094701874202,288143,126332
965.016599366174,0.357785648948269,298370,130909
968.849118414673,0.35715613798285,308316,135469
973.952501032798,0.358247245678112,321417,140871
977.775055911486,0.357246015993576,330891,145358
981.593340431682,0.357742221067837,339738,149074
985.407354593388,0.356932729587667,347531,152778
989.217098396603,0.356576255855717,354810,156106
993.022571841327,0.357639056867885,361478,158651
996.823774927561,0.357557325669292,366859,161043
1000.6207076553,0.3568055138848,372460,163785
1004.41337002455,0.357155908641302,376987,165642
1008.20176203532,0.356951441867054,380513,167270
1013.24630860312,0.356998217568236,384160,168855
1017.02473644407,0.356324749243876,386068,169957
1020.79889392653,0.356329708558943,387976,170795
1024.5687810505,0.356272762448244,389138,171329
1028.33439781597,0.356864746002869,389828,171399
1032.09574422296,0.357081878772936,389916,171352
1035.85282027145,0.356689909772695,390485,171757
1039.60562596146,0.356798575835999,390444,171696
1043.35416129297,0.356649397279227,390319,171700
1048.34556562178,0.356750924933446,389860,171458
1052.08413678348,0.357127188970341,389786,171277
1055.81843758669,0.357233920573487,389142,170952
1059.54846803141,0.356905708239163,389262,171134
1063.27422811764,0.35702989249989,389164,171042
1066.99571784538,0.3570816328177,389356,171106
1070.71293721462,0.357173852223116,390035,171368
1074.42588622538,0.356729853356733,390721,171845
1078.13456487764,0.357349159733105,392055,172186
1081.83897317142,0.357596793682593,393682,172802
1086.77154144991,0.357925938847124,395866,173629
1090.46598557387,0.358784706706498,398187,174302
1094.15615933934,0.358946395396877,400728,175349
1097.84206274632,0.358609905663165,403046,176500
1101.52369579481,0.358755612901084,405911,177695
1105.20105848481,0.359192924484658,409384,179035
1108.87415081632,0.359692320254329,412712,180283
1112.54297278934,0.359658709873977,416441,181926
1116.20752440387,0.360353701071224,420249,183296
1121.08695044336,0.359981397629363,425570,185776
1124.74153788807,0.361113028708658,430029,187234
1128.3918549743,0.361624422993752,434608,189005
1132.03790170203,0.361491700208863,439075,191006
1135.67967807127,0.362226708835892,443975,192811
1139.31718408202,0.362809682535812,448724,194612
1142.95041973428,0.362330047089686,454217,197212
1146.57938502805,0.363202701659605,459377,199052
1150.20407996333,0.364058096905629,464919,201057
1153.82450454012,0.364313929992112,470658,203419
1158.6450945293,0.365228843662342,478829,206515
1162.25555493627,0.365160325579565,484665,209065
1165.86174498476,0.365224890662482,491039,211783
1169.46366467475,0.365432127977667,497576,214500
1173.06131400625,0.366320777146986,504662,217110
1176.65469297927,0.366142206021181,511511,220147
1180.24380159379,0.366407649598027,518473,223007
1183.82863984982,0.366002266377475,526314,226591
1187.40920774736,0.366641695809946,534717,229870
1192.17665549754,0.366376808760361,544857,234372
1195.74725922527,0.366611886159806,553307,237878
1199.3135925945,0.366908575627782,561450,241214
1202.87565560525,0.36705131942709,570026,244818
1206.43344825751,0.366495996171772,578155,248627
1209.98697055127,0.366167664120682,587238,252724
1213.53622248654,0.366130271233945,595740,256405
1217.08120406333,0.365669289920666,604241,260340
1220.62191528162,0.365862209729767,612460,263764
1224.15835614142,0.36501581421462,620994,267961
1228.86696784128,0.364708843262692,631838,272833
1232.39344453127,0.364864308205106,639510,276047
1235.91565086277,0.364744307444997,646872,279302
1239.43358683578,0.364042402097808,654073,282868
1242.94725245029,0.364512566792144,661043,285573
1246.45664770632,0.364153709884186,667623,288654
1249.96177260386,0.363954033445926,673024,291123
1253.4626271429,0.363994047114198,678406,293424
1256.95921132345,0.364171492753065,684165,295794
1261.61468078432,0.364153088566691,693221,299722
1265.10130079506,0.364188065449473,700600,302888
1268.58365044731,0.364355210607569,707321,305676
1272.06172974107,0.36408079056798,713666,308613
1275.53553867634,0.364200671989966,719248,310941
1279.00507725312,0.364099988139328,724465,313269
1282.4703454714,0.363833829855973,729531,315653
1285.9313433312,0.363948428805465,734502,317720
1289.38807083251,0.364027886526586,738329,319317
1292.84052797532,0.364145439636499,741938,320791
1297.43716138587,0.364022608290321,746778,322975
1300.87965435887,0.363936062047785,749824,324357
1304.31787697338,0.364136548689827,752335,325293
1307.7518292294,0.364095408239703,754722,326356
1311.18151112693,0.364649757477547,756809,326841
1314.60692266597,0.365071406732002,758805,327385
1318.02806384652,0.365327363138293,759853,327644
1321.44493466858,0.36521905802097,760584,328041
1324.85753513215,0.366122269635286,761805,327885
1329.4010263037,0.3664034860356,762238,327859
1332.80366259745,0.367157312086103,762081,327223
1336.20202853272,0.367465382774775,761587,326779
1339.59612410949,0.368470119617841,761620,326038
1342.98594932777,0.369301546226137,760519,324944
1346.37150418756,0.370233556212391,758773,323503
1349.75278868886,0.370322509667377,756559,322493
1353.12980283167,0.371615066015974,754374,320606
1356.50254661599,0.372375344635862,752047,319058
1359.87102004182,0.373722161584269,749297,316907
1364.35567516305,0.37431035182259,746709,315385
1367.71418441907,0.375109399370663,744455,313855
1371.06842331659,0.375929907892223,741464,312004
1374.41839185563,0.376669789824341,736996,309596
1377.76409003617,0.378031015758626,731286,306236
1381.10551785823,0.379336522478269,725047,302712
1384.44267532179,0.380500420834794,719310,299513
1387.77556242686,0.382541219797143,713377,295650
1391.10417917344,0.384688083557088,708527,292192
1395.53569205567,0.388383879250313,702523,287261
1398.85434463244,0.392318034087266,698852,283183
1402.16872685072,0.3957781771369,695161,279452
1405.47883871051,0.400247251735517,692361,275477
1408.7846802118,0.405260928529505,689559,271213
1412.08625135461,0.410425522656371,686953,266994
1415.38355213892,0.415054589284491,684318,263150
1418.67658256475,0.420077575163207,682516,259439
1421.96534263208,0.42451899750727,680979,256221
1425.24983234092,0.428247868350533,679447,253459
1429.62250917284,0.432929190831133,677619,250067
1432.89703471187,0.435273216567116,676810,248424
1436.16728989241,0.437468567275378,675689,246762
1439.43327471445,0.438740387768093,674658,245665
1442.69498917801,0.440624989515775,673634,244230
1445.95243328308,0.440628449324771,672845,243942
1449.20560702965,0.441312600279845,671646,243124
1452.45451041774,0.441779111123249,669901,242232
1455.69914344733,0.441135879823809,667631,241769
1460.01867804025,0.441149910374438,664822,240744
1463.25334690003,0.440863220012696,662457,240046
1466.48374540132,0.440605568352879,659295,239042
1469.70987354412,0.440313657900066,655969,237996
1472.93173132843,0.439366281198549,653005,237438
1476.14931875425,0.438925630641722,649969,236574
1479.36263582158,0.438138416573563,646310,235669
1482.57168253042,0.437199955672889,642255,234697
1485.77645888076,0.436340340062457,638131,233652
1488.97696487262,0.435663835609331,634250,232593
1493.23766341522,0.435076920707607,628056,230633
1496.42820523726,0.434023828196115,622930,229306
1499.61447670082,0.432659090483564,618235,228294
1502.79647780588,0.432053128615393,612965,226664
1505.97420855245,0.430761769228852,607524,225321
1509.14766894053,0.429889705173735,601486,223530
1512.31685897012,0.429188772776358,595957,221833
1515.48177864122,0.42791536817662,589187,219957
1518.64242795382,0.427054091577183,583197,218153
1522.84998425743,0.426091071837774,573983,215183
1526.00066940022,0.42486215545962,567568,213381
1529.14708418453,0.424472819928976,560514,210918
1532.28922861034,0.424238454339792,552764,208114
1535.42710267766,0.423696024032144,545092,205482
1538.5607063865,0.423603650914059,537237,202564
1541.69003973684,0.422743398239866,528781,199771
1544.81510272869,0.423139615652312,520436,196439
1547.93589536205,0.421832323052302,511637,193700
1551.05241763692,0.421438221675266,503219,190686
1555.2011378902,0.420962494077044,491433,186424
1558.30769599526,0.420455076948935,482810,183367
1561.40998374183,0.420631454726952,474174,180014
1564.5080011299,0.419969662933933,465375,176943
1567.60174815948,0.419554044024634,456004,173546
1570.69122483058,0.418993610094141,446394,170108
1573.77643114318,0.419133407804672,436938,166451
1576.85736709729,0.418940876554139,427734,163017
1579.93403269291,0.41883235920806,418139,159400
1584.0296107072,0.417614371942551,405296,154938
1587.09631213301,0.416887201143354,395987,151633
1590.15874320033,0.417470408539319,387079,148023
1593.21690390916,0.416371546125255,377128,144583
1596.27079425949,0.415707458593061,368637,141544
1599.32041425134,0.414934444938711,359449,138262
1602.36576388469,0.414892323967024,350516,134839
1605.40684315956,0.413572978293391,341087,131611
1608.44365207593,0.41310685778537,332064,128267
1611.47619063381,0.413810410906044,323270,124668
1615.51293259778,0.412671394691485,311336,120381
1618.53550698585,0.410909203960201,302639,117494
1621.55381101543,0.411742395502649,294056,113943
1624.56784468652,0.410238633204598,285247,110913
1627.57760799912,0.409783169245301,277030,107831
1630.58310095323,0.409924686328541,268182,104353
1633.58432354884,0.409792036423149,259943,101178
1636.58127578597,0.410231605081443,251920,97956
1639.5739576646,0.409005693742805,243483,94943
1643.55755738958,0.410164609854526,232925,90584
1646.5402750984,0.410669175152124,224739,87299
1649.51872244873,0.411711567145816,216931,84064
1652.49289944057,0.41370743030641,209103,80659
1655.46280607392,0.414418066591425,201188,77479
1658.42844234878,0.415101120211907,193770,74505
1661.38980826515,0.416292681528849,186004,71323
1664.34690382303,0.416770865506711,177998,68178
1667.29972902242,0.419088569924739,169231,64475
1670.24828386331,0.417099322939301,160507,61432
1674.17304753796,0.418767536486061,146096,55702
1677.11163820905,0.418080150948771,134060,51194
1680.04595852164,0.417319003605318,120449,46077
1682.97600847574,0.419389801720667,106941,40715
1685.90178807136,0.416612110490207,92983,35628
1688.82329730848,0.423573693346395,80048,30184
1691.74053618711,0.418993932493254,68562,26127
1694.65350470725,0.423788809037444,57829,21795
1697.56220286889,0.421058383349584,49103,18623
1701.43382430455,0.420814198330743,39449,14970
