***Scan Config Information***,,,,,,,***Reference Scan Information***,,,,,,,,
Scan Config Name:,herbario,,,,,,Scan Config Name:,Local New Reference,,,,,,,
Scan Config Type:,Slew,Num Section:,1,,,,Scan Config Type:,Slew,Num Section:,1,,,,,
Section Config Type:,Column,,,,,,Section Config Type:,Column,,,,,,,
Start Wavelength (nm):,900,,,,,,Start Wavelength (nm):,900,,,,,,,
End Wavelength (nm):,1700,,,,,,End Wavelength (nm):,1700,,,,,,,
Pattern Width (nm):,7.03,,,,,,Pattern Width (nm):,7.03,,,,,,,
Exposure (ms):,0.635,,,,,,Exposure (ms):,0.635,,,,,,,
Digital Resolution:,228,,,,,,Digital Resolution:,228,,,,,,,
Num Repeats:,20,,,,,,Num Repeats:,20,,,,,,,
PGA Gain:,64,(FixedPGA),,,,,PGA Gain:,64,(AutoPGA),,,,,,
System Temp (C):,41.35,,,,,,System Temp (C):,41.34,,,,,,,
Humidity (%):,25.04,,,,,,Humidity (%):,25.34,,,,,,,
Lamp Indicator:,1122,,,,,,Lamp Indicator:,1125,,,,,,,
Data Date-Time:,2023/11/10T14:14:58,,,,,,Data Date-Time:,2023/11/10T14:11:52,,,,,,,
Total Measurement Time in sec:,6.8201894,,,,,,,,,,,,,,
,,,,,,,,,,,,,,,
***General Information***,,,,,,,***Calibration Coefficients***,,,,,,,,
Model Name:,NIR-S-G1,,,,,,Shift Vector Coefficients:,-5.08535400046452,0.0413457073195706,-8.39863846568903E-05,,,,,
Serial Number:,B07R011,(95UB122GC0AB07R011),,,,,Pixel to Wavelength Coefficients:,1794.37724621797,-0.920219689099738,-0.000237242138379873,,,,,
GUI Version:,3.9.4,Revision:,526,,,,Versions (Cal/Ref/Cfg):,1,3,1,,,,,
TIVA Version:,2.4.7,,,,,,***Lamp Usage ***,,,,,,,,
DLPC Version:,2.3.1,,,,,,Total Time(hh:mm:ss):,58min 57sec ,,,,,,,
UUID:,DE:67:0C:88:67:2B:47:21,,,,,,***Device/Error/Activation Status***,,,,,,,,
Main Board Version:,D,,,,,,Device Status:,0x00000001,Activation Status:,Activated,,,,,
Detector Board Version:,B,,,,,,Error status:,0x00000000,Error Code:,0x00000000000000000000000000000000,,,,,
,,,,,,,,,Error Details:,Not found,,,,,
***Scan Data***,,,,,,,,,,,,,,,
Wavelength (nm),Absorbance (AU),Reference Signal (unitless),Sample Signal (unitless)
901.81429527209,0.186548786920537,87089,56678
905.716563509274,0.186187939567346,94581,61605
909.614561387966,0.183999886060555,102020,66786
913.508288908168,0.186522717964354,111300,72439
917.397746069878,0.185258339594405,122422,79910
921.282932873098,0.184998967469214,135899,88760
925.163849317827,0.18654551109829,152516,99259
929.040495404065,0.184690211212166,170925,111716
932.912871131812,0.184376765655877,190451,124568
938.069395988934,0.184160621296489,214435,140325
941.931807546869,0.183480148960174,230414,151018
945.789948746314,0.184531312053161,244878,160110
949.643819587268,0.183989373064758,257384,168497
953.493420069731,0.183176973155741,268861,176340
957.338750193702,0.183415670044254,280441,183834
961.179809959184,0.18400311292942,291451,190793
965.016599366174,0.183546851519685,301546,197609
968.849118414673,0.183458983161233,311829,204389
973.952501032798,0.183881645634828,324866,212727
977.775055911486,0.183687288231656,334690,219258
981.593340431682,0.183753457043119,343347,224895
985.407354593388,0.183767478274477,351230,230051
989.217098396603,0.18343911761175,358681,235109
993.022571841327,0.183947323592449,365183,239091
996.823774927561,0.183347978510919,370631,242993
1000.6207076553,0.182875719911644,375861,246690
1004.41337002455,0.183195302075126,380564,249593
1008.20176203532,0.18336662551929,384497,252073
1013.24630860312,0.18299752806957,387380,254179
1017.02473644407,0.183064299090303,389790,255721
1020.79889392653,0.183163003832208,391606,256854
1024.5687810505,0.183033577446153,392983,257834
1028.33439781597,0.182492309538447,393107,258237
1032.09574422296,0.182917010965684,393260,258085
1035.85282027145,0.18281032787997,393951,258602
1039.60562596146,0.183092046427137,393917,258412
1043.35416129297,0.182601176885313,393874,258676
1048.34556562178,0.183485155292513,393372,257821
1052.08413678348,0.182938785359827,393106,257971
1055.81843758669,0.182973288921162,392709,257690
1059.54846803141,0.182805376274558,392903,257917
1063.27422811764,0.182436168567291,392802,258070
1066.99571784538,0.182936842090228,392897,257835
1070.71293721462,0.182334496723309,393407,258528
1074.42588622538,0.182478045479605,394321,259043
1078.13456487764,0.182225178861489,395555,260005
1081.83897317142,0.182113705022705,397379,261271
1086.77154144991,0.182195119159732,399603,262684
1090.46598557387,0.182019043489322,401763,264211
1094.15615933934,0.182503815415239,404483,265703
1097.84206274632,0.182140072911876,406829,267468
1101.52369579481,0.182023704994874,409889,269552
1105.20105848481,0.182133309524019,413144,271624
1108.87415081632,0.182538775147646,416794,273768
1112.54297278934,0.182581831345608,420319,276056
1116.20752440387,0.182375033258669,424024,278622
1121.08695044336,0.18244004159546,429395,282109
1124.74153788807,0.182975390895915,433922,284732
1128.3918549743,0.182878776450868,438631,287886
1132.03790170203,0.182996238135709,443273,290854
1135.67967807127,0.18318995867022,447926,293776
1139.31718408202,0.183932783056508,453203,296729
1142.95041973428,0.183787085380478,458546,300328
1146.57938502805,0.184269132921643,463679,303353
1150.20407996333,0.184402932784195,469051,306773
1153.82450454012,0.184820410207995,474874,310283
1158.6450945293,0.18557298218982,483009,315052
1162.25555493627,0.18599358444214,489066,318694
1165.86174498476,0.186736405852757,495800,322530
1169.46366467475,0.186837027521512,502405,326751
1173.06131400625,0.187345121916595,509380,330900
1176.65469297927,0.187313007906755,516523,335565
1180.24380159379,0.187838115018394,523653,339786
1183.82863984982,0.188058952820986,531780,344884
1187.40920774736,0.188273424157279,539574,349766
1192.17665549754,0.188815446003049,550280,356261
1195.74725922527,0.18889224988716,558698,361647
1199.3135925945,0.188961273646127,567030,366982
1202.87565560525,0.18927712906842,575316,372074
1206.43344825751,0.189378012387415,583891,377532
1209.98697055127,0.189257557432502,592785,383389
1213.53622248654,0.189025455140676,601541,389260
1217.08120406333,0.188800616031203,609910,394880
1220.62191528162,0.188370862963539,618426,400790
1224.15835614142,0.188225153657276,627000,406483
1228.86696784128,0.187700429157003,637696,413917
1232.39344453127,0.187519684582672,645414,419101
1235.91565086277,0.18721754436342,652926,424274
1239.43358683578,0.186951394286164,659896,429066
1242.94725245029,0.186980319152878,666969,433636
1246.45664770632,0.186943079573023,673322,437804
1249.96177260386,0.186841500656634,679012,441607
1253.4626271429,0.186876240867598,684802,445337
1256.95921132345,0.186667865749498,690105,449001
1261.61468078432,0.186362982740575,699452,455402
1265.10130079506,0.186768776177779,706947,459852
1268.58365044731,0.186740453288548,713428,464098
1272.06172974107,0.18642393276114,719810,468591
1275.53553867634,0.1865389090476,725466,472148
1279.00507725312,0.186530613244408,730667,475542
1282.4703454714,0.186440630174653,736052,479146
1285.9313433312,0.186606368772274,740599,481922
1289.38807083251,0.186425627708896,744635,484750
1292.84052797532,0.186448873635887,748033,486936
1297.43716138587,0.186440100401204,753055,490215
1300.87965435887,0.186374273326976,756280,492389
1304.31787697338,0.18657162947288,758815,493815
1307.7518292294,0.186441449844531,761047,495416
1311.18151112693,0.186531840497518,762914,496528
1314.60692266597,0.186718621026975,764910,497613
1318.02806384652,0.186801752522895,766065,498269
1321.44493466858,0.186998541881082,766646,498421
1324.85753513215,0.187142825692995,767707,498945
1329.4010263037,0.187557899000254,768438,498943
1332.80366259745,0.187927918046755,768145,498328
1336.20202853272,0.188332938379117,767919,497717
1339.59612410949,0.188850178150032,767379,496775
1342.98594932777,0.189416765357284,766336,495453
1346.37150418756,0.18974910898869,764511,493895
1349.75278868886,0.190512019510854,762191,491532
1353.12980283167,0.191031840497112,759294,489078
1356.50254661599,0.191399924474053,757085,487242
1359.87102004182,0.192386643486443,754230,484303
1364.35567516305,0.192845493794184,751320,481925
1367.71418441907,0.193771682181731,749515,479743
1371.06842331659,0.194329391563685,746852,477425
1374.41839185563,0.194514025681994,741678,473916
1377.76409003617,0.195391718100296,735623,469098
1381.10551785823,0.196052532603529,729349,464390
1384.44267532179,0.196943877615545,723564,459762
1387.77556242686,0.19827820633795,718000,454827
1391.10417917344,0.199668740962216,713119,450291
1395.53569205567,0.201529933158034,707065,444559
1398.85434463244,0.203944457819025,703538,439889
1402.16872685072,0.206502778250394,700019,435118
1405.47883871051,0.208985145664727,696880,430698
1408.7846802118,0.212387188007041,694435,425838
1412.08625135461,0.215383070256713,691728,421262
1415.38355213892,0.218132092094449,688995,416950
1418.67658256475,0.221128724627675,687441,413149
1421.96534263208,0.22355486195457,685921,409939
1425.24983234092,0.226305358535832,684510,406513
1429.62250917284,0.228584492222748,682436,403160
1432.89703471187,0.230136100204796,681695,401286
1436.16728989241,0.231480285225339,680274,399212
1439.43327471445,0.232329377997077,679705,398099
1442.69498917801,0.233037897394537,678595,396801
1445.95243328308,0.233913279064739,677877,395583
1449.20560702965,0.233970508772275,676501,394728
1452.45451041774,0.234517126404366,674489,393059
1455.69914344733,0.23480302388499,672591,391695
1460.01867804025,0.234859245246336,669355,389760
1463.25334690003,0.235127068519303,667247,388293
1466.48374540132,0.234736354197019,663809,386640
1469.70987354412,0.234495529993892,660723,385056
1472.93173132843,0.23483672244114,657782,383041
1476.14931875425,0.234280172318276,654379,381548
1479.36263582158,0.233810631389246,650547,379724
1482.57168253042,0.233416537066492,646662,377799
1485.77645888076,0.233211513645618,642841,375744
1488.97696487262,0.233190964156593,638857,373433
1493.23766341522,0.23282159043139,632427,369989
1496.42820523726,0.232069777737118,627214,367575
1499.61447670082,0.231676821845174,622487,365135
1502.79647780588,0.230991500417454,617354,362696
1505.97420855245,0.230501498112534,611292,359540
1509.14766894053,0.229578675433404,605736,357030
1512.31685897012,0.229138094789269,599666,353811
1515.48177864122,0.227701494706547,592682,350849
1518.64242795382,0.227384152281946,586584,347493
1522.84998425743,0.226506079378511,578066,343140
1526.00066940022,0.226487958096577,571371,339180
1529.14708418453,0.225937111498327,564092,335284
1532.28922861034,0.225084685894791,556444,331388
1535.42710267766,0.224835796081095,548607,326908
1538.5607063865,0.224198283474233,540461,322527
1541.69003973684,0.224105378430256,531972,317529
1544.81510272869,0.223386320072175,523373,312914
1547.93589536205,0.223110061935048,514701,307925
1551.05241763692,0.223107888078844,506147,302809
1555.2011378902,0.223123488638979,494730,295968
1558.30769599526,0.222508088546522,485817,291048
1561.40998374183,0.222591448972725,476980,285699
1564.5080011299,0.222047347027654,468084,280722
1567.60174815948,0.222148877481916,458385,274841
1570.69122483058,0.221890993636117,448942,269339
1573.77643114318,0.221736751402846,439415,263717
1576.85736709729,0.221321355557487,429866,258233
1579.93403269291,0.221808802838433,420358,252238
1584.0296107072,0.221238929932185,407549,244873
1587.09631213301,0.220480907860926,398051,239584
1590.15874320033,0.219866147995829,388879,234395
1593.21690390916,0.220058192408972,379127,228416
1596.27079425949,0.219530192220157,370263,223347
1599.32041425134,0.219139833670503,361142,218041
1602.36576388469,0.218377868668824,352151,212986
1605.40684315956,0.217868020720834,342995,207692
1608.44365207593,0.217511600200375,333709,202235
1611.47619063381,0.217366027217497,324617,196791
1615.51293259778,0.216587100912027,312985,190080
1618.53550698585,0.216876748882751,304232,184641
1621.55381101543,0.216005847871676,295491,179696
1624.56784468652,0.216201889470208,286869,174374
1627.57760799912,0.216576306235902,278309,169025
1630.58310095323,0.215656428559688,269536,164044
1633.58432354884,0.216090344572684,261447,158962
1636.58127578597,0.215620652678184,252907,153936
1639.5739576646,0.216197205707816,244741,148768
1643.55755738958,0.216254975989972,233837,142121
1646.5402750984,0.217631847445387,225990,136917
1649.51872244873,0.216433759518521,217776,132305
1652.49289944057,0.218172887099442,209767,126930
1655.46280607392,0.218093126030306,202146,122341
1658.42844234878,0.218908640347458,194421,117445
1661.38980826515,0.220500543617483,186437,112210
1664.34690382303,0.22013818045633,178386,107454
1667.29972902242,0.22196632130558,169941,101937
1670.24828386331,0.22143620468667,160639,96475
1674.17304753796,0.223699551961733,146108,87292
1677.11163820905,0.224461042055643,133623,79693
1680.04595852164,0.224690644985072,120100,71590
1682.97600847574,0.225167834102951,106217,63245
1685.90178807136,0.227160203695197,92550,54855
1688.82329730848,0.226956796438828,79422,47096
1691.74053618711,0.229477625721825,67575,39839
1694.65350470725,0.231154151411303,57441,33734
1697.56220286889,0.235296803922457,48583,28261
1701.43382430455,0.238381527793605,39078,22571
