***Scan Config Information***,,,,,,,***Reference Scan Information***,,,,,,,,
Scan Config Name:,herbario,,,,,,Scan Config Name:,Local New Reference,,,,,,,
Scan Config Type:,Slew,Num Section:,1,,,,Scan Config Type:,Slew,Num Section:,1,,,,,
Section Config Type:,Column,,,,,,Section Config Type:,Column,,,,,,,
Start Wavelength (nm):,900,,,,,,Start Wavelength (nm):,900,,,,,,,
End Wavelength (nm):,1700,,,,,,End Wavelength (nm):,1700,,,,,,,
Pattern Width (nm):,7.03,,,,,,Pattern Width (nm):,7.03,,,,,,,
Exposure (ms):,0.635,,,,,,Exposure (ms):,0.635,,,,,,,
Digital Resolution:,228,,,,,,Digital Resolution:,228,,,,,,,
Num Repeats:,20,,,,,,Num Repeats:,20,,,,,,,
PGA Gain:,64,(FixedPGA),,,,,PGA Gain:,64,(AutoPGA),,,,,,
System Temp (C):,41.57,,,,,,System Temp (C):,41.31,,,,,,,
Humidity (%):,18.39,,,,,,Humidity (%):,18.53,,,,,,,
Lamp Indicator:,1124,,,,,,Lamp Indicator:,1125,,,,,,,
Data Date-Time:,2023/11/10T18:41:31,,,,,,Data Date-Time:,2023/11/10T18:40:14,,,,,,,
Total Measurement Time in sec:,6.7500786,,,,,,,,,,,,,,
,,,,,,,,,,,,,,,
***General Information***,,,,,,,***Calibration Coefficients***,,,,,,,,
Model Name:,NIR-S-G1,,,,,,Shift Vector Coefficients:,-5.08535400046452,0.0413457073195706,-8.39863846568903E-05,,,,,
Serial Number:,B07R011,(95UB122GC0AB07R011),,,,,Pixel to Wavelength Coefficients:,1794.37724621797,-0.920219689099738,-0.000237242138379873,,,,,
GUI Version:,3.9.4,Revision:,526,,,,Versions (Cal/Ref/Cfg):,1,3,1,,,,,
TIVA Version:,2.4.7,,,,,,***Lamp Usage ***,,,,,,,,
DLPC Version:,2.3.1,,,,,,Total Time(hh:mm:ss):,1hr 36min 27sec ,,,,,,,
UUID:,DE:67:0C:88:67:2B:47:21,,,,,,***Device/Error/Activation Status***,,,,,,,,
Main Board Version:,D,,,,,,Device Status:,0x00000001,Activation Status:,Activated,,,,,
Detector Board Version:,B,,,,,,Error status:,0x00000000,Error Code:,0x00000000000000000000000000000000,,,,,
,,,,,,,,,Error Details:,Not found,,,,,
***Scan Data***,,,,,,,,,,,,,,,
Wavelength (nm),Absorbance (AU),Reference Signal (unitless),Sample Signal (unitless)
901.81429527209,0.187176179380944,87318,56745
905.716563509274,0.187080293150956,94694,61552
909.614561387966,0.188174658794371,102498,66457
913.508288908168,0.184521208552647,111140,72669
917.397746069878,0.185786880741354,122341,79760
921.282932873098,0.184144688235285,135499,88673
925.163849317827,0.184361805414444,151881,99344
929.040495404065,0.183495419101741,170431,111700
932.912871131812,0.183656427557453,189998,124478
938.069395988934,0.183692928923836,214308,140393
941.931807546869,0.184057311623296,230615,150949
945.789948746314,0.183505604931219,245019,160581
949.643819587268,0.182877195275442,257486,168996
953.493420069731,0.183240518440032,269155,176507
957.338750193702,0.182794238702814,280660,184241
961.179809959184,0.18289415168965,291529,191332
965.016599366174,0.182287080337658,301727,198302
968.849118414673,0.182853397564066,311978,204772
973.952501032798,0.182796053456846,325298,213543
977.775055911486,0.18259135106556,334824,219900
981.593340431682,0.182465774952501,343361,225572
985.407354593388,0.182684754267099,351321,230685
989.217098396603,0.182657263733532,359012,235750
993.022571841327,0.182823954591156,365402,239854
996.823774927561,0.182447505747212,370839,243634
1000.6207076553,0.181845620039067,376144,247462
1004.41337002455,0.181687568779951,380839,250642
1008.20176203532,0.181876295033505,384554,252977
1013.24630860312,0.181034068760205,388010,255746
1017.02473644407,0.180881072414212,390259,257319
1020.79889392653,0.18068280895359,391994,258581
1024.5687810505,0.180531081793087,393177,259452
1028.33439781597,0.180220815213768,393561,259891
1032.09574422296,0.180204548589956,393837,260083
1035.85282027145,0.179093220565979,393921,260805
1039.60562596146,0.179588419742725,393944,260523
1043.35416129297,0.179355683902333,394141,260793
1048.34556562178,0.179329110058346,393594,260447
1052.08413678348,0.178617064948068,393171,260594
1055.81843758669,0.178780191631475,392961,260357
1059.54846803141,0.177946604095245,392566,260595
1063.27422811764,0.17841566197524,393043,260630
1066.99571784538,0.177921647007566,392914,260841
1070.71293721462,0.177833276284149,393694,261412
1074.42588622538,0.177699170803432,394533,262050
1078.13456487764,0.177473736074219,395663,262937
1081.83897317142,0.178017558781924,397569,263873
1086.77154144991,0.176998705314889,399561,265818
1090.46598557387,0.176912253325749,401880,267414
1094.15615933934,0.176692517186989,404412,269235
1097.84206274632,0.176855394648548,406726,270674
1101.52369579481,0.176655616854978,409660,272752
1105.20105848481,0.175965033592296,412815,275290
1108.87415081632,0.176198142677199,416534,277621
1112.54297278934,0.176464694455816,420013,279768
1116.20752440387,0.176528159593617,423672,282164
1121.08695044336,0.177015094732943,429422,285673
1124.74153788807,0.177069541926295,433547,288381
1128.3918549743,0.177273043165044,438461,291513
1132.03790170203,0.177549044468679,443145,294440
1135.67967807127,0.177935746477803,447726,297219
1139.31718408202,0.178132533898173,452851,300485
1142.95041973428,0.178161110434538,458076,303932
1146.57938502805,0.178424540220817,463311,307219
1150.20407996333,0.178945120402742,468570,310334
1153.82450454012,0.179302416812318,474704,314138
1158.6450945293,0.180227208688201,482688,318742
1162.25555493627,0.180264307797625,488613,322627
1165.86174498476,0.180624487637846,494951,326541
1169.46366467475,0.181165408737668,501822,330662
1173.06131400625,0.181278833926598,508684,335096
1176.65469297927,0.181926060590358,515688,339204
1180.24380159379,0.182240686404438,522838,343658
1183.82863984982,0.182489540127625,530784,348681
1187.40920774736,0.183158990331355,539110,353605
1192.17665549754,0.183537532956548,549427,360058
1195.74725922527,0.183382673877483,557903,365743
1199.3135925945,0.183689917858318,566437,371075
1202.87565560525,0.183523169937651,574438,376461
1206.43344825751,0.183998390203421,583053,381689
1209.98697055127,0.183378171950592,591811,387976
1213.53622248654,0.18350528221208,600448,393523
1217.08120406333,0.183106297027634,608720,399311
1220.62191528162,0.183457832097594,617482,404731
1224.15835614142,0.182955671681142,625700,410592
1228.86696784128,0.182889801865158,636350,417644
1232.39344453127,0.182627946393436,644439,423208
1235.91565086277,0.182541436867852,651932,428214
1239.43358683578,0.182381876754197,658923,432965
1242.94725245029,0.182073753578847,665716,437739
1246.45664770632,0.182002666937094,672372,442188
1249.96177260386,0.18194027176294,677814,445831
1253.4626271429,0.181856834238757,683273,449508
1256.95921132345,0.181541508874541,688584,453331
1261.61468078432,0.181769095630448,698381,459540
1265.10130079506,0.181693585387201,705392,464234
1268.58365044731,0.181689893808571,712178,468704
1272.06172974107,0.181763293490879,718435,472742
1275.53553867634,0.181642663856942,724103,476604
1279.00507725312,0.1815520145357,729484,480246
1282.4703454714,0.18117442999935,734432,483924
1285.9313433312,0.181445705372558,739184,486751
1289.38807083251,0.181460020709597,743289,489438
1292.84052797532,0.181281624668065,746583,491809
1297.43716138587,0.181311682640614,751558,495052
1300.87965435887,0.181336339574013,754502,496963
1304.31787697338,0.181376766572433,757322,498774
1307.7518292294,0.181385150280985,759514,500208
1311.18151112693,0.181631378356988,761780,501416
1314.60692266597,0.181577812543277,763594,502672
1318.02806384652,0.181940677789538,764810,503052
1321.44493466858,0.182096642564351,765652,503425
1324.85753513215,0.182144614638639,766345,503825
1329.4010263037,0.182970879918622,767143,503391
1332.80366259745,0.183408425572366,766583,502517
1336.20202853272,0.183583445861533,766103,502000
1339.59612410949,0.184989385786987,766165,500418
1342.98594932777,0.185410557506756,765195,499300
1346.37150418756,0.186380721918583,763478,497068
1349.75278868886,0.187367502899188,761266,494503
1353.12980283167,0.188266516563368,758720,491830
1356.50254661599,0.18910011932092,756680,489567
1359.87102004182,0.189936222527741,753926,486847
1364.35567516305,0.19092546286912,750992,483849
1367.71418441907,0.191757698272494,748848,481544
1371.06842331659,0.1923720122646,746035,479057
1374.41839185563,0.19305642485363,741205,475206
1377.76409003617,0.193774690427908,735192,470572
1381.10551785823,0.194826828728048,729331,465691
1384.44267532179,0.196090267452345,723227,460452
1387.77556242686,0.197555133240466,717447,455234
1391.10417917344,0.199235739125669,712440,450311
1395.53569205567,0.20266493510572,706796,443230
1398.85434463244,0.205843284846229,703098,437696
1402.16872685072,0.209123704721127,699200,431994
1405.47883871051,0.213395691000801,696141,425894
1408.7846802118,0.217966034035002,693550,419867
1412.08625135461,0.222484300431006,690902,413935
1415.38355213892,0.227797647075667,688451,407451
1418.67658256475,0.232399108299706,686322,401910
1421.96534263208,0.237151678466694,684974,396755
1425.24983234092,0.241443588392963,683092,391774
1429.62250917284,0.246625032286849,681554,386256
1432.89703471187,0.249700985377811,680399,382880
1436.16728989241,0.25237450555783,679113,379811
1439.43327471445,0.254207850360935,678111,377653
1442.69498917801,0.255896242597759,677268,375720
1445.95243328308,0.256705040058567,676627,374666
1449.20560702965,0.257328906920124,675424,373463
1452.45451041774,0.257669958819593,673408,372056
1455.69914344733,0.257745524436235,671380,370871
1460.01867804025,0.257276971290418,668213,369520
1463.25334690003,0.256978344870278,665793,368435
1466.48374540132,0.256776267183112,662857,366981
1469.70987354412,0.256132700233041,659722,365787
1472.93173132843,0.255354664145518,656586,364701
1476.14931875425,0.254535177056505,653483,363663
1479.36263582158,0.253801138829327,649676,362156
1482.57168253042,0.25314726106886,646044,360674
1485.77645888076,0.252138502689074,641886,359186
1488.97696487262,0.251147059152166,637648,357630
1493.23766341522,0.250577459339967,631351,354563
1496.42820523726,0.249498459292439,626763,352862
1499.61447670082,0.248614777134178,621669,350707
1502.79647780588,0.247611347726323,616172,348410
1505.97420855245,0.246821261239793,610607,345892
1509.14766894053,0.245625499096688,604997,343659
1512.31685897012,0.244520430431699,598901,341063
1515.48177864122,0.243630360535507,592295,337993
1518.64242795382,0.242788696151586,585910,334998
1522.84998425743,0.241399618600749,577353,331163
1526.00066940022,0.240943752722035,570549,327604
1529.14708418453,0.240349044576713,563488,323993
1532.28922861034,0.240080375558132,556081,319932
1535.42710267766,0.239424375509731,548022,315772
1538.5607063865,0.239204038289709,540051,311337
1541.69003973684,0.239045668110622,531798,306691
1544.81510272869,0.238576742184734,523317,302126
1547.93589536205,0.238592491583375,514708,297145
1551.05241763692,0.238222693919013,506011,292373
1555.2011378902,0.238289480869392,494680,285782
1558.30769599526,0.237317368973069,485935,281359
1561.40998374183,0.237552348829746,476934,275998
1564.5080011299,0.237305658088469,467964,270961
1567.60174815948,0.236985625598199,458483,265667
1570.69122483058,0.23688646864278,449201,260348
1573.77643114318,0.236525452369079,439396,254877
1576.85736709729,0.235896257610004,429977,249775
1579.93403269291,0.236106688848649,420513,244159
1584.0296107072,0.235512715399341,407467,236908
1587.09631213301,0.235355008018958,398260,231639
1590.15874320033,0.234172361357485,389041,226894
1593.21690390916,0.234143435694541,379100,221111
1596.27079425949,0.233381454500107,370405,216419
1599.32041425134,0.232386319584513,361552,211731
1602.36576388469,0.232475833695922,352407,206333
1605.40684315956,0.231395427522977,342989,201319
1608.44365207593,0.231210960069477,334090,196179
1611.47619063381,0.230622301442868,325197,191216
1615.51293259778,0.229572735881021,313291,184661
1618.53550698585,0.229538353537212,304594,179549
1621.55381101543,0.229241710329073,295735,174446
1624.56784468652,0.229098342941156,287479,169632
1627.57760799912,0.228460398310575,278826,164768
1630.58310095323,0.228642646391282,269857,159401
1633.58432354884,0.228916463388675,261652,154457
1636.58127578597,0.228170098630402,253033,149626
1639.5739576646,0.228732743974718,245008,144693
1643.55755738958,0.228933022861341,234057,138162
1646.5402750984,0.230579487176147,226219,133030
1649.51872244873,0.231496184155851,218185,128035
1652.49289944057,0.233116808748517,210019,122784
1655.46280607392,0.234372406221043,202369,117970
1658.42844234878,0.234636591930128,194641,113396
1661.38980826515,0.23774564443211,187264,108320
1664.34690382303,0.238720471823938,178933,103269
1667.29972902242,0.240250514168874,170441,98022
1670.24828386331,0.241068261025532,161409,92653
1674.17304753796,0.240940229829656,146889,84343
1677.11163820905,0.243438645138292,134764,76937
1680.04595852164,0.24107929067983,121339,69650
1682.97600847574,0.241896362427853,107606,61651
1685.90178807136,0.242448689591563,93706,53619
1688.82329730848,0.243420025783742,80760,46108
1691.74053618711,0.241918547226826,68673,39343
1694.65350470725,0.243585101160629,58387,33322
1697.56220286889,0.247847179948982,49558,28007
1701.43382430455,0.247912779323536,39846,22515
