***Scan Config Information***,,,,,,,***Reference Scan Information***,,,,,,,,
Scan Config Name:,herbario,,,,,,Scan Config Name:,Local New Reference,,,,,,,
Scan Config Type:,Slew,Num Section:,1,,,,Scan Config Type:,Slew,Num Section:,1,,,,,
Section Config Type:,Column,,,,,,Section Config Type:,Column,,,,,,,
Start Wavelength (nm):,900,,,,,,Start Wavelength (nm):,900,,,,,,,
End Wavelength (nm):,1700,,,,,,End Wavelength (nm):,1700,,,,,,,
Pattern Width (nm):,7.03,,,,,,Pattern Width (nm):,7.03,,,,,,,
Exposure (ms):,0.635,,,,,,Exposure (ms):,0.635,,,,,,,
Digital Resolution:,228,,,,,,Digital Resolution:,228,,,,,,,
Num Repeats:,20,,,,,,Num Repeats:,20,,,,,,,
PGA Gain:,64,(FixedPGA),,,,,PGA Gain:,64,(AutoPGA),,,,,,
System Temp (C):,40.85,,,,,,System Temp (C):,40.49,,,,,,,
Humidity (%):,20.65,,,,,,Humidity (%):,20.83,,,,,,,
Lamp Indicator:,1118,,,,,,Lamp Indicator:,1116,,,,,,,
Data Date-Time:,2023/11/13T12:43:05,,,,,,Data Date-Time:,2023/11/13T12:41:23,,,,,,,
Total Measurement Time in sec:,6.7596707,,,,,,,,,,,,,,
,,,,,,,,,,,,,,,
***General Information***,,,,,,,***Calibration Coefficients***,,,,,,,,
Model Name:,NIR-S-G1,,,,,,Shift Vector Coefficients:,-5.08535400046452,0.0413457073195706,-8.39863846568903E-05,,,,,
Serial Number:,B07R011,(95UB122GC0AB07R011),,,,,Pixel to Wavelength Coefficients:,1794.37724621797,-0.920219689099738,-0.000237242138379873,,,,,
GUI Version:,3.9.4,Revision:,526,,,,Versions (Cal/Ref/Cfg):,1,3,1,,,,,
TIVA Version:,2.4.7,,,,,,***Lamp Usage ***,,,,,,,,
DLPC Version:,2.3.1,,,,,,Total Time(hh:mm:ss):,2hr 2min 32sec ,,,,,,,
UUID:,DE:67:0C:88:67:2B:47:21,,,,,,***Device/Error/Activation Status***,,,,,,,,
Main Board Version:,D,,,,,,Device Status:,0x00000001,Activation Status:,Activated,,,,,
Detector Board Version:,B,,,,,,Error status:,0x00000000,Error Code:,0x00000000000000000000000000000000,,,,,
,,,,,,,,,Error Details:,Not found,,,,,
***Scan Data***,,,,,,,,,,,,,,,
Wavelength (nm),Absorbance (AU),Reference Signal (unitless),Sample Signal (unitless)
901.81429527209,0.143474469378764,86249,61984
905.716563509274,0.142180171014992,93520,67410
909.614561387966,0.14339769919049,101195,72738
913.508288908168,0.14123728568188,109810,79324
917.397746069878,0.142645374873562,121023,87141
921.282932873098,0.143088558534218,134554,96785
925.163849317827,0.140589435525718,150217,108675
929.040495404065,0.141605725960352,169039,122006
932.912871131812,0.14091534090561,188174,136033
938.069395988934,0.139874008352323,212098,153696
941.931807546869,0.139996011397867,228163,165291
945.789948746314,0.13971225379585,242257,175616
949.643819587268,0.139364122858418,254861,184901
953.493420069731,0.139097430679562,266441,193421
957.338750193702,0.138954472447569,277900,201806
961.179809959184,0.138187541916641,288470,209852
965.016599366174,0.138377838720593,298406,216985
968.849118414673,0.138221953930366,308571,224457
973.952501032798,0.138039799818766,321826,234197
977.775055911486,0.138638378657886,331334,240784
981.593340431682,0.137997415128613,339881,247360
985.407354593388,0.138162561338263,347815,253038
989.217098396603,0.137506686831751,355057,258697
993.022571841327,0.138088085015624,361379,262951
996.823774927561,0.137657856418699,367032,267329
1000.6207076553,0.137039654994919,372275,271534
1004.41337002455,0.137207123465724,377053,274913
1008.20176203532,0.137153495299425,380476,277443
1013.24630860312,0.136730887712604,383779,280124
1017.02473644407,0.136082669200956,386130,282261
1020.79889392653,0.135972454547973,387732,283504
1024.5687810505,0.135634711298458,389270,284850
1028.33439781597,0.135524487600956,389536,285117
1032.09574422296,0.135915385939574,389709,284987
1035.85282027145,0.135317742588502,389946,285553
1039.60562596146,0.134952590286546,389928,285780
1043.35416129297,0.135299054071769,390033,285629
1048.34556562178,0.134466773214587,389428,285733
1052.08413678348,0.133984993501953,389082,285796
1055.81843758669,0.134044849139612,388768,285526
1059.54846803141,0.1334967033678,388536,285716
1063.27422811764,0.134199136230623,388947,285556
1066.99571784538,0.133665828061899,388637,285679
1070.71293721462,0.133161384367552,389118,286365
1074.42588622538,0.133120576651763,390201,287189
1078.13456487764,0.13406653274841,391941,287842
1081.83897317142,0.132862894635572,393018,289434
1086.77154144991,0.133474503902455,395394,290774
1090.46598557387,0.132751111757517,397375,292718
1094.15615933934,0.132167222655177,399783,294888
1097.84206274632,0.132979084242329,402582,296398
1101.52369579481,0.132257785214552,405030,298696
1105.20105848481,0.132469766631993,408500,301108
1108.87415081632,0.132137713651948,411749,303735
1112.54297278934,0.132035977512899,415217,306365
1116.20752440387,0.132696096057979,419185,308823
1121.08695044336,0.132353557934218,424456,312953
1124.74153788807,0.13257251908388,428627,315869
1128.3918549743,0.132991574072326,433280,318990
1132.03790170203,0.133051519249661,437979,322405
1135.67967807127,0.133378156266519,442663,325608
1139.31718408202,0.133561076374686,447471,329006
1142.95041973428,0.13377132581883,452770,332741
1146.57938502805,0.134404589897436,458068,336144
1150.20407996333,0.134896851204999,463462,339717
1153.82450454012,0.134519729885814,469015,344086
1158.6450945293,0.135364057095266,476882,349178
1162.25555493627,0.135728113151917,482651,353106
1165.86174498476,0.135977456345287,489203,357694
1169.46366467475,0.136210570113706,495659,362220
1173.06131400625,0.136719806881464,502685,366924
1176.65469297927,0.136512230798138,509475,372058
1180.24380159379,0.137183332895997,516418,376546
1183.82863984982,0.137623296771577,524558,382094
1187.40920774736,0.137765023770665,532064,387435
1192.17665549754,0.138021376759486,542651,394911
1195.74725922527,0.137958019127713,550715,400838
1199.3135925945,0.138082909011387,559302,406971
1202.87565560525,0.137714647234925,567270,413119
1206.43344825751,0.138120585475786,575500,418721
1209.98697055127,0.137713224202356,584674,425795
1213.53622248654,0.137411941151331,592809,432019
1217.08120406333,0.137309683129217,601378,438367
1220.62191528162,0.136657754436218,609781,445160
1224.15835614142,0.136272575891953,617894,451483
1228.86696784128,0.135774932297431,628601,459833
1232.39344453127,0.135333636034817,636394,466007
1235.91565086277,0.13480937945912,643581,471839
1239.43358683578,0.135068518444993,650856,476888
1242.94725245029,0.134603896018819,657548,482307
1246.45664770632,0.134378057775454,664067,487342
1249.96177260386,0.134214620126957,669568,491564
1253.4626271429,0.134017732866018,674927,495723
1256.95921132345,0.133748989678188,680544,500158
1261.61468078432,0.133926031255771,689977,506884
1265.10130079506,0.13339754248636,696523,512316
1268.58365044731,0.133453092243188,703578,517439
1272.06172974107,0.133352367764231,709747,522097
1275.53553867634,0.133195442306715,715141,526255
1279.00507725312,0.133365744746944,720756,530179
1282.4703454714,0.132990394713117,725686,534267
1285.9313433312,0.132916756697358,730198,537680
1289.38807083251,0.132571215879009,733965,540884
1292.84052797532,0.132685397042924,737835,543593
1297.43716138587,0.132592181807762,742429,547095
1300.87965435887,0.132498951983847,745690,549616
1304.31787697338,0.132634976217696,748262,551339
1307.7518292294,0.132391470084122,750493,553293
1311.18151112693,0.132548404454379,752535,554598
1314.60692266597,0.132542459395841,754309,555913
1318.02806384652,0.132820625705048,755258,556256
1321.44493466858,0.132834384938038,756174,556913
1324.85753513215,0.13338077604687,757319,557055
1329.4010263037,0.133788042675891,757888,556951
1332.80366259745,0.133964681235702,757630,556535
1336.20202853272,0.134659279944919,757561,555595
1339.59612410949,0.135417015627741,757014,554226
1342.98594932777,0.135880352513342,755890,552813
1346.37150418756,0.136685154394525,754192,550550
1349.75278868886,0.137380307154802,752302,548292
1353.12980283167,0.138338393633918,749801,545265
1356.50254661599,0.139085802597818,747208,542445
1359.87102004182,0.140148508276677,744468,539135
1364.35567516305,0.141112457315158,741666,535915
1367.71418441907,0.141556331206954,739723,533965
1371.06842331659,0.142309378763312,736473,530698
1374.41839185563,0.142854685633551,731914,526751
1377.76409003617,0.143667980435339,726196,521658
1381.10551785823,0.144586148685325,719950,516079
1384.44267532179,0.145964052319703,714405,510482
1387.77556242686,0.147264477719093,709056,505145
1391.10417917344,0.148313618744191,703806,500195
1395.53569205567,0.151151005065338,697858,492738
1398.85434463244,0.15336073741089,693812,487395
1402.16872685072,0.156686919071958,690604,481440
1405.47883871051,0.16006286612885,687542,475594
1408.7846802118,0.163915353873333,684914,469592
1412.08625135461,0.167800219035563,682025,463447
1415.38355213892,0.172032089089037,679790,457449
1418.67658256475,0.176156934098685,677861,451839
1421.96534263208,0.180265077623658,676248,446520
1425.24983234092,0.183736161943766,674852,442051
1429.62250917284,0.187965879755988,672978,436551
1432.89703471187,0.190554100420509,672111,433398
1436.16728989241,0.192814101988216,670358,430024
1439.43327471445,0.194172168758906,669563,428173
1442.69498917801,0.195763947051611,668881,426172
1445.95243328308,0.197195121929266,668256,424373
1449.20560702965,0.197636544799604,666806,423022
1452.45451041774,0.198573242133445,664911,420911
1455.69914344733,0.198792207449398,662599,419236
1460.01867804025,0.199375613074702,660057,417067
1463.25334690003,0.199151507535526,657551,415698
1466.48374540132,0.199345218582,654385,413512
1469.70987354412,0.199153604719805,651257,411717
1472.93173132843,0.199007945101862,648303,409987
1476.14931875425,0.199071513466669,644917,407786
1479.36263582158,0.198538060230269,641429,406079
1482.57168253042,0.198483104135768,637799,403832
1485.77645888076,0.197665874609595,633351,401771
1488.97696487262,0.197430029366205,629448,399512
1493.23766341522,0.196553276805237,623169,396326
1496.42820523726,0.196478632013549,618910,393685
1499.61447670082,0.195554079467662,613559,391113
1502.79647780588,0.194193849977545,608081,388837
1505.97420855245,0.193724396138937,602522,385699
1509.14766894053,0.193180790640917,597005,382646
1512.31685897012,0.192305960983348,591257,379726
1515.48177864122,0.191380589144205,584621,376265
1518.64242795382,0.189883006212326,578561,373651
1522.84998425743,0.1895151824958,569621,368189
1526.00066940022,0.188553715214308,563153,364815
1529.14708418453,0.188050719519996,556090,360657
1532.28922861034,0.187521259266811,548484,356158
1535.42710267766,0.186762338073146,540610,351659
1538.5607063865,0.186666676975354,532949,346752
1541.69003973684,0.186042030505984,524457,341718
1544.81510272869,0.185759150587844,516189,336550
1547.93589536205,0.185738824769638,507774,331079
1551.05241763692,0.185170350132592,499145,325879
1555.2011378902,0.185308111713912,487881,318424
1558.30769599526,0.184919641922524,479330,313123
1561.40998374183,0.184253848674982,470420,307774
1564.5080011299,0.184450996724058,461633,301888
1567.60174815948,0.183734757803906,452085,296132
1570.69122483058,0.184254188915335,442850,289736
1573.77643114318,0.183705280750582,433652,284077
1576.85736709729,0.183529130319885,424310,278070
1579.93403269291,0.183549659019162,414460,271602
1584.0296107072,0.183143762760839,402009,263689
1587.09631213301,0.182279288709006,392686,258087
1590.15874320033,0.181124108142774,383538,252746
1593.21690390916,0.181146918602973,373782,246304
1596.27079425949,0.180317591260069,365179,241095
1599.32041425134,0.179775965141417,356278,235512
1602.36576388469,0.179336420096395,347509,229948
1605.40684315956,0.178701297970112,338128,224068
1608.44365207593,0.177726842538178,329211,218649
1611.47619063381,0.176591896139758,320286,213278
1615.51293259778,0.176835548995515,308645,205411
1618.53550698585,0.175686016118942,299933,200142
1621.55381101543,0.175438796061022,291324,194508
1624.56784468652,0.174654174157379,282698,189090
1627.57760799912,0.174848426900936,274441,183485
1630.58310095323,0.174788080011212,266040,177893
1633.58432354884,0.173520595646062,257381,172606
1636.58127578597,0.174374549003673,249325,166875
1639.5739576646,0.174384012259085,241443,161596
1643.55755738958,0.174266365204175,230478,154299
1646.5402750984,0.175988925928108,222780,148555
1649.51872244873,0.176011282869172,214477,143011
1652.49289944057,0.177030063122342,206776,137553
1655.46280607392,0.177856097617848,199115,132205
1658.42844234878,0.179500751288381,191882,126921
1661.38980826515,0.179617574778809,183757,121514
1664.34690382303,0.181049053606084,175714,115813
1667.29972902242,0.181023369565545,166927,110028
1670.24828386331,0.181261426691752,158017,104098
1674.17304753796,0.18248771587983,143395,94199
1677.11163820905,0.184403970229344,130837,85571
1680.04595852164,0.18479484657756,117558,76817
1682.97600847574,0.185041003329812,103816,67799
1685.90178807136,0.186505581910456,90147,58674
1688.82329730848,0.187338871308423,77505,50349
1691.74053618711,0.188680774623917,65798,42612
1694.65350470725,0.188978319092942,55733,36069
1697.56220286889,0.190001661441552,47157,30447
1701.43382430455,0.192454288790798,38119,24473
