***Scan Config Information***,,,,,,,***Reference Scan Information***,,,,,,,,
Scan Config Name:,herbario,,,,,,Scan Config Name:,Local New Reference,,,,,,,
Scan Config Type:,Slew,Num Section:,1,,,,Scan Config Type:,Slew,Num Section:,1,,,,,
Section Config Type:,Column,,,,,,Section Config Type:,Column,,,,,,,
Start Wavelength (nm):,900,,,,,,Start Wavelength (nm):,900,,,,,,,
End Wavelength (nm):,1700,,,,,,End Wavelength (nm):,1700,,,,,,,
Pattern Width (nm):,7.03,,,,,,Pattern Width (nm):,7.03,,,,,,,
Exposure (ms):,0.635,,,,,,Exposure (ms):,0.635,,,,,,,
Digital Resolution:,228,,,,,,Digital Resolution:,228,,,,,,,
Num Repeats:,20,,,,,,Num Repeats:,20,,,,,,,
PGA Gain:,64,(FixedPGA),,,,,PGA Gain:,64,(AutoPGA),,,,,,
System Temp (C):,40.92,,,,,,System Temp (C):,40.63,,,,,,,
Humidity (%):,22.64,,,,,,Humidity (%):,22.93,,,,,,,
Lamp Indicator:,1118,,,,,,Lamp Indicator:,1118,,,,,,,
Data Date-Time:,2023/11/13T11:44:31,,,,,,Data Date-Time:,2023/11/13T11:42:50,,,,,,,
Total Measurement Time in sec:,6.8318469,,,,,,,,,,,,,,
,,,,,,,,,,,,,,,
***General Information***,,,,,,,***Calibration Coefficients***,,,,,,,,
Model Name:,NIR-S-G1,,,,,,Shift Vector Coefficients:,-5.08535400046452,0.0413457073195706,-8.39863846568903E-05,,,,,
Serial Number:,B07R011,(95UB122GC0AB07R011),,,,,Pixel to Wavelength Coefficients:,1794.37724621797,-0.920219689099738,-0.000237242138379873,,,,,
GUI Version:,3.9.4,Revision:,526,,,,Versions (Cal/Ref/Cfg):,1,3,1,,,,,
TIVA Version:,2.4.7,,,,,,***Lamp Usage ***,,,,,,,,
DLPC Version:,2.3.1,,,,,,Total Time(hh:mm:ss):,1hr 56min 0sec ,,,,,,,
UUID:,DE:67:0C:88:67:2B:47:21,,,,,,***Device/Error/Activation Status***,,,,,,,,
Main Board Version:,D,,,,,,Device Status:,0x00000001,Activation Status:,Activated,,,,,
Detector Board Version:,B,,,,,,Error status:,0x00000000,Error Code:,0x00000000000000000000000000000000,,,,,
,,,,,,,,,Error Details:,Not found,,,,,
***Scan Data***,,,,,,,,,,,,,,,
Wavelength (nm),Absorbance (AU),Reference Signal (unitless),Sample Signal (unitless)
901.81429527209,0.205668615160633,86585,53923
905.716563509274,0.206387863431116,94156,58541
909.614561387966,0.205207420687129,101728,63421
913.508288908168,0.203108271456902,110622,69300
917.397746069878,0.204302007194588,121707,76035
921.282932873098,0.203443660211431,134873,84427
925.163849317827,0.201132847087342,151206,95156
929.040495404065,0.201875983440628,169872,106720
932.912871131812,0.20061764599588,189131,119164
938.069395988934,0.199648239779469,213203,134631
941.931807546869,0.200367397253219,229682,144797
945.789948746314,0.200093003146285,243785,153785
949.643819587268,0.199856498643464,256351,161800
953.493420069731,0.199178260822258,268217,169554
957.338750193702,0.199291274590807,279056,176360
961.179809959184,0.199424900086447,290060,183258
965.016599366174,0.198930005769513,300531,190090
968.849118414673,0.198795247342629,310681,196571
973.952501032798,0.197597119805394,323443,205211
977.775055911486,0.198353397470767,333488,211216
981.593340431682,0.197753438133668,341832,216800
985.407354593388,0.197624267954467,349889,221976
989.217098396603,0.197629845231153,357365,226716
993.022571841327,0.196990742742626,363757,231111
996.823774927561,0.197383936918178,369312,234428
1000.6207076553,0.196981630811553,374995,238256
1004.41337002455,0.196897146420775,379517,241176
1008.20176203532,0.196062113065052,382771,243712
1013.24630860312,0.19642245631313,386451,245851
1017.02473644407,0.195930026137313,388643,247526
1020.79889392653,0.195753873058842,390408,248751
1024.5687810505,0.195293950128969,391630,249794
1028.33439781597,0.196112922075851,392198,249685
1032.09574422296,0.195569206472303,392567,250233
1035.85282027145,0.195240323182968,392552,250413
1039.60562596146,0.195223788132733,392617,250464
1043.35416129297,0.194824931911155,392598,250682
1048.34556562178,0.194848144626783,392229,250433
1052.08413678348,0.19470047710268,391925,250324
1055.81843758669,0.194907049404014,391676,250046
1059.54846803141,0.19484852177729,391689,250088
1063.27422811764,0.193934011948399,391298,250365
1066.99571784538,0.194804586849501,391676,250105
1070.71293721462,0.194493165215266,392209,250625
1074.42588622538,0.194226903287884,393115,251358
1078.13456487764,0.194441898719085,394466,252097
1081.83897317142,0.194193216131444,395840,253120
1086.77154144991,0.19358243960632,398040,254885
1090.46598557387,0.194194522671468,400478,256085
1094.15615933934,0.193713509532578,402834,257877
1097.84206274632,0.193978788394742,405270,259278
1101.52369579481,0.193914367986268,408309,261261
1105.20105848481,0.194053128408682,411624,263298
1108.87415081632,0.193927926485356,415125,265614
1112.54297278934,0.193895271431511,418485,267784
1116.20752440387,0.19411408862724,422253,270059
1121.08695044336,0.194133527797861,427693,273526
1124.74153788807,0.193868356659845,431909,276391
1128.3918549743,0.194335299664571,436746,279186
1132.03790170203,0.194911052076495,441431,281807
1135.67967807127,0.19469439817051,445889,284795
1139.31718408202,0.195560976067974,451191,287607
1142.95041973428,0.195597432537015,456309,290845
1146.57938502805,0.195965850148029,461374,293824
1150.20407996333,0.196133883563439,466884,297218
1153.82450454012,0.197008447626795,472873,300425
1158.6450945293,0.197002930038903,480674,305385
1162.25555493627,0.197533408711236,486607,308777
1165.86174498476,0.198102781049107,493207,312555
1169.46366467475,0.197857862213691,499865,316953
1173.06131400625,0.198005998988144,506802,321242
1176.65469297927,0.198183713066814,513856,325580
1180.24380159379,0.198922037297623,520787,329411
1183.82863984982,0.19907764168748,529128,334567
1187.40920774736,0.199152326691854,536799,339359
1192.17665549754,0.199249932290848,547229,345875
1195.74725922527,0.199329097930033,555529,351057
1199.3135925945,0.199460746200874,564155,356400
1202.87565560525,0.199091190868801,572377,361902
1206.43344825751,0.19914398205855,580550,367025
1209.98697055127,0.199270877430195,589702,372702
1213.53622248654,0.199214017047552,598163,378099
1217.08120406333,0.199098661261726,606684,383587
1220.62191528162,0.199046385218073,615051,388924
1224.15835614142,0.198746984205425,623458,394512
1228.86696784128,0.198638956181553,634274,401456
1232.39344453127,0.198643792166662,642214,406477
1235.91565086277,0.198314072165426,649663,411504
1239.43358683578,0.197958174460555,656761,416341
1242.94725245029,0.198406983983605,663728,420323
1246.45664770632,0.197926458155214,670111,424835
1249.96177260386,0.198045406564524,675872,428370
1253.4626271429,0.19795579674427,681536,432049
1256.95921132345,0.197477585303429,687051,436025
1261.61468078432,0.19755726605343,696258,441787
1265.10130079506,0.19768543677278,703318,446135
1268.58365044731,0.197679374720596,710027,450397
1272.06172974107,0.197473498041578,716518,454730
1275.53553867634,0.197456400444249,722129,458309
1279.00507725312,0.197214333535285,727380,461899
1282.4703454714,0.197517447832632,732565,464867
1285.9313433312,0.197322165696156,737210,468025
1289.38807083251,0.197426945620803,741218,470456
1292.84052797532,0.197350044366133,745069,472984
1297.43716138587,0.197227073024287,749625,476011
1300.87965435887,0.197089804162401,752691,478109
1304.31787697338,0.197327433768514,755587,479686
1307.7518292294,0.197468686261136,757815,480944
1311.18151112693,0.197580411009503,759709,482022
1314.60692266597,0.197700621376066,761458,482998
1318.02806384652,0.197797220547708,763004,483871
1321.44493466858,0.198223050380056,763672,483820
1324.85753513215,0.198357249230822,764508,484200
1329.4010263037,0.19886638724382,765272,484116
1332.80366259745,0.199101995505288,764868,483598
1336.20202853272,0.199840015667093,764865,482775
1339.59612410949,0.200237201651407,764477,482089
1342.98594932777,0.200565374761979,763314,480992
1346.37150418756,0.201733629534156,761828,478766
1349.75278868886,0.201929853732725,759579,477137
1353.12980283167,0.202637695684417,756905,474683
1356.50254661599,0.203215582465402,754571,472590
1359.87102004182,0.203449029164155,751558,470450
1364.35567516305,0.204315077408129,749018,467926
1367.71418441907,0.204425886907381,746745,466387
1371.06842331659,0.205172674377862,744245,464027
1374.41839185563,0.205817897184249,739577,460432
1377.76409003617,0.206413135980043,733461,455999
1381.10551785823,0.206980323554334,727180,451504
1384.44267532179,0.208090024608094,721474,446818
1387.77556242686,0.209284000924883,715996,442208
1391.10417917344,0.210860316433677,710697,437345
1395.53569205567,0.213292884331111,704951,431386
1398.85434463244,0.215684129352339,700836,426513
1402.16872685072,0.217994037725701,697452,422202
1405.47883871051,0.221089138403577,694619,417501
1408.7846802118,0.224427723980521,692034,412762
1412.08625135461,0.227089808527009,688983,408431
1415.38355213892,0.229971927698725,686491,404262
1418.67658256475,0.233068461941707,684769,400383
1421.96534263208,0.236034846764356,683263,396783
1425.24983234092,0.23806929360837,681691,394020
1429.62250917284,0.240729007373529,679901,390586
1432.89703471187,0.241910113291666,679089,389060
1436.16728989241,0.243501971938942,677655,386818
1439.43327471445,0.243996143520433,676941,385971
1442.69498917801,0.244415348700287,675783,384939
1445.95243328308,0.24487389238728,675337,384279
1449.20560702965,0.245283521381712,673932,383118
1452.45451041774,0.245172735410415,671903,382062
1455.69914344733,0.245601230181383,669931,380565
1460.01867804025,0.245698221875237,667193,378925
1463.25334690003,0.245668865461162,664639,377500
1466.48374540132,0.245424884057964,661489,375922
1469.70987354412,0.244901218713245,658270,374544
1472.93173132843,0.244752206853375,655270,372965
1476.14931875425,0.244828469409149,652389,371260
1479.36263582158,0.243814754310262,648354,369826
1482.57168253042,0.243378315793624,644482,367987
1485.77645888076,0.243058046161136,640680,366086
1488.97696487262,0.242569736790582,636754,364252
1493.23766341522,0.241897743940179,630254,361092
1496.42820523726,0.24100854248529,625314,358996
1499.61447670082,0.240520854016456,620045,356371
1502.79647780588,0.240192980142012,614909,353686
1505.97420855245,0.239381877553745,609373,351157
1509.14766894053,0.238990582550287,603987,348367
1512.31685897012,0.237735373741289,597552,345653
1515.48177864122,0.237693122731793,591245,342038
1518.64242795382,0.236746007939601,585024,339178
1522.84998425743,0.235854729375326,575917,334584
1526.00066940022,0.235626906031254,569425,330986
1529.14708418453,0.235501729708349,562414,327005
1532.28922861034,0.234876510570905,554682,322974
1535.42710267766,0.234618627856161,546804,318576
1538.5607063865,0.234102783845077,538742,314252
1541.69003973684,0.233914490836914,530535,309599
1544.81510272869,0.233946249489795,522233,304732
1547.93589536205,0.233201638371071,513301,300034
1551.05241763692,0.232858009412577,504811,295305
1555.2011378902,0.232088369504861,493066,288946
1558.30769599526,0.232534799496582,484723,283765
1561.40998374183,0.232192028348015,475733,278722
1564.5080011299,0.231731476461782,466557,273636
1567.60174815948,0.231819678756932,457175,268079
1570.69122483058,0.231498447096369,448025,262908
1573.77643114318,0.231624687413454,438335,257147
1576.85736709729,0.231093558679296,428861,251897
1579.93403269291,0.231308212303359,419248,246129
1584.0296107072,0.23055462591991,406387,238993
1587.09631213301,0.230283454257443,397035,233639
1590.15874320033,0.229688535152507,388042,228660
1593.21690390916,0.229841297175003,378334,222861
1596.27079425949,0.229035689253821,369640,218144
1599.32041425134,0.228449111508868,360406,212982
1602.36576388469,0.228049886841081,351292,207787
1605.40684315956,0.227885676437575,342138,202449
1608.44365207593,0.226872159985624,332922,197456
1611.47619063381,0.22718416123248,324131,192104
1615.51293259778,0.22670254889187,312397,185355
1618.53550698585,0.22554257450178,303371,180481
1621.55381101543,0.22551569653513,294881,175441
1624.56784468652,0.225636443410971,286096,170167
1627.57760799912,0.224877568104845,277512,165350
1630.58310095323,0.224653987826564,269111,160427
1633.58432354884,0.224855479894186,260363,155140
1636.58127578597,0.224684971378025,252252,150366
1639.5739576646,0.225580981011496,243934,145108
1643.55755738958,0.226323060423605,233180,138474
1646.5402750984,0.2274086600711,225252,133432
1649.51872244873,0.227149455741581,217237,128761
1652.49289944057,0.227740850115063,209319,123899
1655.46280607392,0.228101578069527,201196,118992
1658.42844234878,0.229620393766266,193865,114256
1661.38980826515,0.230203519828813,186123,109546
1664.34690382303,0.231495126718881,177966,104434
1667.29972902242,0.232253118288047,169115,99067
1670.24828386331,0.232641447383685,160115,93711
1674.17304753796,0.234009880476678,145520,84901
1677.11163820905,0.234119173397866,132827,77476
1680.04595852164,0.234814352664033,119153,69389
1682.97600847574,0.237315536479721,105268,60951
1685.90178807136,0.234262249559663,91500,53353
1688.82329730848,0.23753387358097,78541,45453
1691.74053618711,0.235468510612837,66658,38760
1694.65350470725,0.236240232365615,56717,32921
1697.56220286889,0.239291056154452,47951,27638
1701.43382430455,0.239825335555115,38687,22271
