***Scan Config Information***,,,,,,,***Reference Scan Information***,,,,,,,,
Scan Config Name:,herbario,,,,,,Scan Config Name:,Local New Reference,,,,,,,
Scan Config Type:,Slew,Num Section:,1,,,,Scan Config Type:,Slew,Num Section:,1,,,,,
Section Config Type:,Column,,,,,,Section Config Type:,Column,,,,,,,
Start Wavelength (nm):,900,,,,,,Start Wavelength (nm):,900,,,,,,,
End Wavelength (nm):,1700,,,,,,End Wavelength (nm):,1700,,,,,,,
Pattern Width (nm):,7.03,,,,,,Pattern Width (nm):,7.03,,,,,,,
Exposure (ms):,0.635,,,,,,Exposure (ms):,0.635,,,,,,,
Digital Resolution:,228,,,,,,Digital Resolution:,228,,,,,,,
Num Repeats:,20,,,,,,Num Repeats:,20,,,,,,,
PGA Gain:,64,(FixedPGA),,,,,PGA Gain:,64,(AutoPGA),,,,,,
System Temp (C):,41.56,,,,,,System Temp (C):,41.6,,,,,,,
Humidity (%):,22.86,,,,,,Humidity (%):,22.87,,,,,,,
Lamp Indicator:,1121,,,,,,Lamp Indicator:,1128,,,,,,,
Data Date-Time:,2023/11/10T14:55:42,,,,,,Data Date-Time:,2023/11/10T14:55:01,,,,,,,
Total Measurement Time in sec:,6.7859498,,,,,,,,,,,,,,
,,,,,,,,,,,,,,,
***General Information***,,,,,,,***Calibration Coefficients***,,,,,,,,
Model Name:,NIR-S-G1,,,,,,Shift Vector Coefficients:,-5.08535400046452,0.0413457073195706,-8.39863846568903E-05,,,,,
Serial Number:,B07R011,(95UB122GC0AB07R011),,,,,Pixel to Wavelength Coefficients:,1794.37724621797,-0.920219689099738,-0.000237242138379873,,,,,
GUI Version:,3.9.4,Revision:,526,,,,Versions (Cal/Ref/Cfg):,1,3,1,,,,,
TIVA Version:,2.4.7,,,,,,***Lamp Usage ***,,,,,,,,
DLPC Version:,2.3.1,,,,,,Total Time(hh:mm:ss):,1hr 5min 25sec ,,,,,,,
UUID:,DE:67:0C:88:67:2B:47:21,,,,,,***Device/Error/Activation Status***,,,,,,,,
Main Board Version:,D,,,,,,Device Status:,0x00000001,Activation Status:,Activated,,,,,
Detector Board Version:,B,,,,,,Error status:,0x00000000,Error Code:,0x00000000000000000000000000000000,,,,,
,,,,,,,,,Error Details:,Not found,,,,,
***Scan Data***,,,,,,,,,,,,,,,
Wavelength (nm),Absorbance (AU),Reference Signal (unitless),Sample Signal (unitless)
901.81429527209,0.205064277982821,86742,54096
905.716563509274,0.202319115176961,94242,59146
909.614561387966,0.202596396012814,101925,63927
913.508288908168,0.203845997105292,110922,69370
917.397746069878,0.199868271512125,121732,76831
921.282932873098,0.199248685660066,135358,85553
925.163849317827,0.198911161405122,151832,96040
929.040495404065,0.19812301931529,170192,107849
932.912871131812,0.196822792755804,189361,120356
938.069395988934,0.196458847073693,213520,135825
941.931807546869,0.195641550531964,229815,146466
945.789948746314,0.196072032191198,244078,155402
949.643819587268,0.194751220922876,256407,163749
953.493420069731,0.194565801661602,268434,171503
957.338750193702,0.194102568599863,279746,178921
961.179809959184,0.193819091696855,290515,185930
965.016599366174,0.193398160299224,300714,192644
968.849118414673,0.19291719812382,310758,199299
973.952501032798,0.19318224411985,323977,207650
977.775055911486,0.193178078269624,333619,213832
981.593340431682,0.192972985315009,342419,219576
985.407354593388,0.192540890377018,350231,224809
989.217098396603,0.19257552287566,357792,229644
993.022571841327,0.192065866775158,363980,233890
996.823774927561,0.191583237189044,369419,237649
1000.6207076553,0.191489303910235,375178,241406
1004.41337002455,0.19132570868274,379542,244306
1008.20176203532,0.190976772140409,383194,246855
1013.24630860312,0.190806618612197,386844,249304
1017.02473644407,0.190283445412089,388796,250864
1020.79889392653,0.190164979022912,390667,252140
1024.5687810505,0.189664962913517,392087,253348
1028.33439781597,0.189493669065009,392183,253510
1032.09574422296,0.189216756994441,392621,253955
1035.85282027145,0.188584380099378,392712,254384
1039.60562596146,0.18882901752822,393114,254501
1043.35416129297,0.188201973053824,392826,254682
1048.34556562178,0.188215212013047,392403,254400
1052.08413678348,0.187613254454815,392032,254512
1055.81843758669,0.187709283357163,391903,254372
1059.54846803141,0.187717091844392,391719,254248
1063.27422811764,0.187641797802189,391819,254357
1066.99571784538,0.187107699280199,391899,254722
1070.71293721462,0.186966982769794,392478,255181
1074.42588622538,0.187103876586354,393531,255785
1078.13456487764,0.186641409828323,394772,256865
1081.83897317142,0.186740564476779,396487,257922
1086.77154144991,0.186795459407417,398894,259455
1090.46598557387,0.1860490546988,400921,261222
1094.15615933934,0.185829101616717,403424,262986
1097.84206274632,0.185627302614959,405834,264680
1101.52369579481,0.185966372236439,408821,266420
1105.20105848481,0.185510876768351,412007,268778
1108.87415081632,0.185769589878625,415814,271100
1112.54297278934,0.185527571151479,419079,273381
1116.20752440387,0.185390162060668,422986,276017
1121.08695044336,0.185507286101446,428551,279573
1124.74153788807,0.185925366972274,432749,282040
1128.3918549743,0.185967744684502,437651,285207
1132.03790170203,0.186407933550227,442256,287916
1135.67967807127,0.186682407995939,447139,290911
1139.31718408202,0.18636521796038,452093,294349
1142.95041973428,0.186872203650292,457594,297583
1146.57938502805,0.187195134481981,462871,300791
1150.20407996333,0.187875228445943,468288,303835
1153.82450454012,0.187885996293297,473782,307392
1158.6450945293,0.18909219355067,482044,311885
1162.25555493627,0.188648521016322,487822,315946
1165.86174498476,0.189067574667637,494461,319937
1169.46366467475,0.189698967865788,501311,323898
1173.06131400625,0.189838445419212,508227,328261
1176.65469297927,0.190004523285817,515371,332748
1180.24380159379,0.190765489577568,522616,336835
1183.82863984982,0.191060400224453,530453,341654
1187.40920774736,0.191490312605814,538575,346542
1192.17665549754,0.191642043810702,549021,353140
1195.74725922527,0.192082217426884,557524,358246
1199.3135925945,0.192117913810029,565786,363525
1202.87565560525,0.19205781572135,573999,368853
1206.43344825751,0.192428536278569,582434,373954
1209.98697055127,0.192455326144718,591761,379919
1213.53622248654,0.192369635567433,600295,385474
1217.08120406333,0.191618951871911,608760,391586
1220.62191528162,0.191306056151408,617150,397269
1224.15835614142,0.190923584150792,625505,403002
1228.86696784128,0.190915881508711,636239,409925
1232.39344453127,0.19069825246617,644212,415270
1235.91565086277,0.190351225999161,651640,420394
1239.43358683578,0.190106136042807,658504,425062
1242.94725245029,0.189820422960282,665352,429765
1246.45664770632,0.189863321664573,671882,433940
1249.96177260386,0.189977099780478,677745,437612
1253.4626271429,0.189905305205434,683048,441109
1256.95921132345,0.189800283413586,688922,445010
1261.61468078432,0.189827107026359,698342,451067
1265.10130079506,0.189727788284577,705451,455763
1268.58365044731,0.189564729133078,712022,460181
1272.06172974107,0.18956432559258,718574,464416
1275.53553867634,0.189585849329278,723999,467899
1279.00507725312,0.189758583769569,729677,471381
1282.4703454714,0.189363700325162,734634,475015
1285.9313433312,0.189237426779811,739269,478151
1289.38807083251,0.189388116444883,743205,480530
1292.84052797532,0.189463601576775,746527,482594
1297.43716138587,0.189051453696401,751231,486096
1300.87965435887,0.188954436761889,754637,488409
1304.31787697338,0.18939063298728,757457,489742
1307.7518292294,0.189293880549871,759450,491140
1311.18151112693,0.189705379141702,761679,492115
1314.60692266597,0.189729557121118,763455,493235
1318.02806384652,0.189957700055503,764567,493694
1321.44493466858,0.190264130368922,765460,493922
1324.85753513215,0.190378578593013,766164,494246
1329.4010263037,0.190908995225915,766942,494144
1332.80366259745,0.191330861574317,766923,493652
1336.20202853272,0.191821312951429,766452,492792
1339.59612410949,0.192510380790333,766091,491779
1342.98594932777,0.193053820971645,764982,490453
1346.37150418756,0.194203390661191,763311,488088
1349.75278868886,0.195155170526488,761000,485545
1353.12980283167,0.19563494082829,758463,483392
1356.50254661599,0.196608716501934,756264,480911
1359.87102004182,0.197173152401334,753311,478411
1364.35567516305,0.19821107611724,750361,475400
1367.71418441907,0.199147208949833,748747,473356
1371.06842331659,0.199913229991397,745510,470479
1374.41839185563,0.200861576276082,740940,466575
1377.76409003617,0.201708138504079,734648,461712
1381.10551785823,0.202971269781136,728485,456509
1384.44267532179,0.204505984275339,722642,451250
1387.77556242686,0.206288490930452,717164,445995
1391.10417917344,0.208559222368047,712177,440584
1395.53569205567,0.212429533323632,706348,433101
1398.85434463244,0.215896280825487,702418,427267
1402.16872685072,0.219969407738323,698992,421214
1405.47883871051,0.224410567573663,695918,415095
1408.7846802118,0.229293120433618,693391,408964
1412.08625135461,0.234528174447677,690673,402480
1415.38355213892,0.239600581376031,688073,396309
1418.67658256475,0.244413621241746,686275,390917
1421.96534263208,0.249283395675803,684922,385796
1425.24983234092,0.252725650664198,683184,381779
1429.62250917284,0.25751893941869,681533,376676
1432.89703471187,0.260073557398774,680647,373980
1436.16728989241,0.262420971217285,679280,371217
1439.43327471445,0.263844066007523,678495,369575
1442.69498917801,0.265634977388765,677562,367548
1445.95243328308,0.266253231172294,676875,366653
1449.20560702965,0.266535514894443,675405,365619
1452.45451041774,0.266849921492361,673783,364477
1455.69914344733,0.266795643346923,671270,363163
1460.01867804025,0.266717936628235,668570,361767
1463.25334690003,0.266449937729403,666089,360647
1466.48374540132,0.265910041389502,662928,359382
1469.70987354412,0.265242154687047,659852,358265
1472.93173132843,0.264604135492055,656704,357080
1476.14931875425,0.26330967370432,653455,356374
1479.36263582158,0.262422994787718,649683,355041
1482.57168253042,0.261549552790571,645821,353641
1485.77645888076,0.260085799124902,641908,352685
1488.97696487262,0.258671004226755,637451,351379
1493.23766341522,0.257853671660918,631416,348708
1496.42820523726,0.256656557093194,626433,346911
1499.61447670082,0.255877420076688,621597,344851
1502.79647780588,0.254501719479445,616086,342878
1505.97420855245,0.253618003573495,610496,340459
1509.14766894053,0.252508704810529,605027,338272
1512.31685897012,0.251160482587274,598744,335800
1515.48177864122,0.250626498659065,592306,332598
1518.64242795382,0.249530979614352,586078,329932
1522.84998425743,0.248271677127064,577073,325806
1526.00066940022,0.247816098079141,570645,322515
1529.14708418453,0.246518381011921,563098,319202
1532.28922861034,0.246186947366029,555376,315065
1535.42710267766,0.245606698841852,547644,311094
1538.5607063865,0.245690585918486,539860,306613
1541.69003973684,0.244926287648445,531418,302350
1544.81510272869,0.244736703519981,522971,297674
1547.93589536205,0.244181225725906,514398,293169
1551.05241763692,0.243536664555634,505688,288633
1555.2011378902,0.242545092852949,493961,282584
1558.30769599526,0.242390992804133,485241,277694
1561.40998374183,0.242051730757491,476654,272993
1564.5080011299,0.241868272569963,467625,267935
1567.60174815948,0.24168172155569,458049,262561
1570.69122483058,0.241449468691535,448624,257296
1573.77643114318,0.240902814498617,438912,252043
1576.85736709729,0.24049879240458,429657,246958
1579.93403269291,0.240525754256196,419975,241378
1584.0296107072,0.240131698248486,407212,234255
1587.09631213301,0.239428519896695,397801,229212
1590.15874320033,0.239110729249134,388733,224151
1593.21690390916,0.2380342724017,378832,218984
1596.27079425949,0.237834335587266,369896,213917
1599.32041425134,0.236804120347867,360691,209089
1602.36576388469,0.236169968162119,351583,204107
1605.40684315956,0.235648743500132,342583,199121
1608.44365207593,0.235558366480242,333285,193757
1611.47619063381,0.235060629172389,324596,188922
1615.51293259778,0.234420548045848,312776,182311
1618.53550698585,0.233936926693288,304053,177424
1621.55381101543,0.233911105978846,295191,172263
1624.56784468652,0.234235727726029,286827,167257
1627.57760799912,0.233034273794263,278250,162705
1630.58310095323,0.2320498667182,269464,157925
1633.58432354884,0.233059960399013,261140,152691
1636.58127578597,0.232910683701791,252743,147832
1639.5739576646,0.233364754893912,244356,142777
1643.55755738958,0.233606978956894,233461,136335
1646.5402750984,0.233587152887601,225625,131765
1649.51872244873,0.235029589425651,217624,126671
1652.49289944057,0.23645222444057,209637,121623
1655.46280607392,0.236603385069751,201887,117086
1658.42844234878,0.237372909996033,194213,112436
1661.38980826515,0.237236641994108,186461,107982
1664.34690382303,0.238117749808946,178408,103109
1667.29972902242,0.240003023019381,169866,97747
1670.24828386331,0.239644830028305,160860,92641
1674.17304753796,0.240562536374856,146422,84148
1677.11163820905,0.241089146407215,134016,76925
1680.04595852164,0.242050993915137,120750,69157
1682.97600847574,0.241933625864941,106725,61141
1685.90178807136,0.245188896207669,93163,52973
1688.82329730848,0.244124002647559,80084,45648
1691.74053618711,0.241657214195973,67749,38837
1694.65350470725,0.247636863246185,57698,32623
1697.56220286889,0.248120965434391,48966,27655
1701.43382430455,0.249703638389058,39410,22177
