***Scan Config Information***,,,,,,,***Reference Scan Information***,,,,,,,,
Scan Config Name:,herbario,,,,,,Scan Config Name:,Local New Reference,,,,,,,
Scan Config Type:,Slew,Num Section:,1,,,,Scan Config Type:,Slew,Num Section:,1,,,,,
Section Config Type:,Column,,,,,,Section Config Type:,Column,,,,,,,
Start Wavelength (nm):,900,,,,,,Start Wavelength (nm):,900,,,,,,,
End Wavelength (nm):,1700,,,,,,End Wavelength (nm):,1700,,,,,,,
Pattern Width (nm):,7.03,,,,,,Pattern Width (nm):,7.03,,,,,,,
Exposure (ms):,0.635,,,,,,Exposure (ms):,0.635,,,,,,,
Digital Resolution:,228,,,,,,Digital Resolution:,228,,,,,,,
Num Repeats:,20,,,,,,Num Repeats:,20,,,,,,,
PGA Gain:,64,(FixedPGA),,,,,PGA Gain:,64,(AutoPGA),,,,,,
System Temp (C):,41.21,,,,,,System Temp (C):,41.11,,,,,,,
Humidity (%):,22.05,,,,,,Humidity (%):,22.15,,,,,,,
Lamp Indicator:,1119,,,,,,Lamp Indicator:,1123,,,,,,,
Data Date-Time:,2023/11/13T11:55:07,,,,,,Data Date-Time:,2023/11/13T11:54:16,,,,,,,
Total Measurement Time in sec:,6.8052166,,,,,,,,,,,,,,
,,,,,,,,,,,,,,,
***General Information***,,,,,,,***Calibration Coefficients***,,,,,,,,
Model Name:,NIR-S-G1,,,,,,Shift Vector Coefficients:,-5.08535400046452,0.0413457073195706,-8.39863846568903E-05,,,,,
Serial Number:,B07R011,(95UB122GC0AB07R011),,,,,Pixel to Wavelength Coefficients:,1794.37724621797,-0.920219689099738,-0.000237242138379873,,,,,
GUI Version:,3.9.4,Revision:,526,,,,Versions (Cal/Ref/Cfg):,1,3,1,,,,,
TIVA Version:,2.4.7,,,,,,***Lamp Usage ***,,,,,,,,
DLPC Version:,2.3.1,,,,,,Total Time(hh:mm:ss):,1hr 57min 36sec ,,,,,,,
UUID:,DE:67:0C:88:67:2B:47:21,,,,,,***Device/Error/Activation Status***,,,,,,,,
Main Board Version:,D,,,,,,Device Status:,0x00000001,Activation Status:,Activated,,,,,
Detector Board Version:,B,,,,,,Error status:,0x00000000,Error Code:,0x00000000000000000000000000000000,,,,,
,,,,,,,,,Error Details:,Not found,,,,,
***Scan Data***,,,,,,,,,,,,,,,
Wavelength (nm),Absorbance (AU),Reference Signal (unitless),Sample Signal (unitless)
901.81429527209,0.209467927155839,86693,53520
905.716563509274,0.206090767789475,94045,58512
909.614561387966,0.204256048538652,101515,63427
913.508288908168,0.203073314670258,110653,69325
917.397746069878,0.201594062508367,121205,76195
921.282932873098,0.199551667338921,134702,85079
925.163849317827,0.197592062166739,150905,95744
929.040495404065,0.195179176684019,169478,108127
932.912871131812,0.195117070849374,188835,120494
938.069395988934,0.193099474842954,212962,136522
941.931807546869,0.192418345649937,229452,147324
945.789948746314,0.191605628564555,243698,156764
949.643819587268,0.189341214613967,255970,165519
953.493420069731,0.18819694129418,267739,173586
957.338750193702,0.187613952247914,279245,181289
961.179809959184,0.187032516982593,290070,188569
965.016599366174,0.185488581378373,300247,195880
968.849118414673,0.18445372049894,310339,202947
973.952501032798,0.183592026604959,323398,211907
977.775055911486,0.182585271350109,333417,218979
981.593340431682,0.182195922963815,341771,224667
985.407354593388,0.181245781316354,349661,230357
989.217098396603,0.179928914381714,357086,235963
993.022571841327,0.179661947705815,363515,240359
996.823774927561,0.179349256690411,369025,244178
1000.6207076553,0.177714387780016,374489,248728
1004.41337002455,0.177138176422778,379198,252190
1008.20176203532,0.176708118422793,382566,254682
1013.24630860312,0.1760108463872,386123,257463
1017.02473644407,0.175462878883313,388136,259132
1020.79889392653,0.174828941445244,390096,260821
1024.5687810505,0.174039039807834,391104,261971
1028.33439781597,0.17397338835363,391839,262503
1032.09574422296,0.172965704509462,391814,263096
1035.85282027145,0.172484646657128,392368,263760
1039.60562596146,0.172020541966636,392047,263826
1043.35416129297,0.172386256313377,392468,263887
1048.34556562178,0.171349650137111,391746,264031
1052.08413678348,0.171137627953334,391755,264166
1055.81843758669,0.170541136580287,391241,264182
1059.54846803141,0.170485268407049,391281,264243
1063.27422811764,0.170556355288829,391505,264351
1066.99571784538,0.169616110079661,391378,264838
1070.71293721462,0.168714445939091,391575,265522
1074.42588622538,0.168568579584655,392617,266318
1078.13456487764,0.168683158596015,394005,267189
1081.83897317142,0.168004942056146,395475,268605
1086.77154144991,0.16799080877048,397753,270161
1090.46598557387,0.167820167262545,399950,271760
1094.15615933934,0.167688360299055,402446,273539
1097.84206274632,0.16787475892008,405015,275167
1101.52369579481,0.167429077482444,407830,277364
1105.20105848481,0.167130983205386,411084,279769
1108.87415081632,0.167368082083145,414487,281931
1112.54297278934,0.167764752046551,417875,283976
1116.20752440387,0.167387009780474,421893,286956
1121.08695044336,0.167276962100915,427254,290676
1124.74153788807,0.167476162624803,431344,293324
1128.3918549743,0.167682305104332,436167,296463
1132.03790170203,0.167595986123312,440855,299709
1135.67967807127,0.167471135681592,445581,303009
1139.31718408202,0.167868226641196,450519,306087
1142.95041973428,0.168441315548407,456116,309481
1146.57938502805,0.168252829227045,461139,313025
1150.20407996333,0.168833365570388,466404,316176
1153.82450454012,0.169214542706285,472455,319997
1158.6450945293,0.169255535031174,480448,325380
1162.25555493627,0.169381478453516,486358,329287
1165.86174498476,0.169570560231277,492770,333483
1169.46366467475,0.16959764029074,499288,337873
1173.06131400625,0.169631155640591,506135,342480
1176.65469297927,0.169628438031938,513391,347392
1180.24380159379,0.169981646420029,520423,351864
1183.82863984982,0.170021136238294,528273,357139
1187.40920774736,0.170289512427213,536225,362291
1192.17665549754,0.169996831984551,546531,369503
1195.74725922527,0.170214197237814,554923,374989
1199.3135925945,0.170199055873686,563590,380859
1202.87565560525,0.170067566494207,571717,386468
1206.43344825751,0.169646886874073,580025,392464
1209.98697055127,0.169324277927513,589006,398837
1213.53622248654,0.169089101981211,597524,404824
1217.08120406333,0.168897870857397,605970,410727
1220.62191528162,0.168781065895097,614499,416620
1224.15835614142,0.168525686012926,622916,422575
1228.86696784128,0.167936848619449,633547,430370
1232.39344453127,0.167742356804959,641524,435984
1235.91565086277,0.167290082252984,649051,441559
1239.43358683578,0.167061631896394,655929,446473
1242.94725245029,0.16691109932704,662685,451228
1246.45664770632,0.16640517303682,669006,456063
1249.96177260386,0.166222399113251,674990,460336
1253.4626271429,0.165960506713919,680455,464343
1256.95921132345,0.166171099591771,686305,468108
1261.61468078432,0.165833180567711,695298,474611
1265.10130079506,0.165627657792031,702557,479793
1268.58365044731,0.16574756978587,709348,484297
1272.06172974107,0.165402138698736,715547,488918
1275.53553867634,0.165212556530755,721196,492993
1279.00507725312,0.16526461310872,726589,496620
1282.4703454714,0.164772167178281,731601,500613
1285.9313433312,0.164905312616075,736303,503676
1289.38807083251,0.164914583592113,740374,506450
1292.84052797532,0.164737318040111,743842,509030
1297.43716138587,0.164871872508393,748715,512206
1300.87965435887,0.164863362406126,751672,514239
1304.31787697338,0.16495118486951,754615,516148
1307.7518292294,0.164727578478568,756813,517918
1311.18151112693,0.165152340259896,759183,519032
1314.60692266597,0.164892011461001,760453,520212
1318.02806384652,0.165141741608798,761670,520745
1321.44493466858,0.165383708462247,762895,521292
1324.85753513215,0.165568103455279,763626,521570
1329.4010263037,0.165916291811717,763963,521382
1332.80366259745,0.166223341234494,763908,520976
1336.20202853272,0.166881113642915,763637,520003
1339.59612410949,0.167551194486729,763388,519032
1342.98594932777,0.168385932651933,762409,517371
1346.37150418756,0.168890819836237,760655,515581
1349.75278868886,0.169182684590634,758258,513611
1353.12980283167,0.169949005387264,755851,511078
1356.50254661599,0.170837450884375,753894,508713
1359.87102004182,0.171177547274241,750627,506112
1364.35567516305,0.172128833895665,747744,503065
1367.71418441907,0.172771071286194,745930,501103
1371.06842331659,0.173261509869999,743153,498674
1374.41839185563,0.173687837750713,738365,494975
1377.76409003617,0.174518210317193,732229,489924
1381.10551785823,0.175582368768065,726257,484739
1384.44267532179,0.176624079734345,720570,479791
1387.77556242686,0.178375699333638,714979,474152
1391.10417917344,0.180005303255251,709825,468971
1395.53569205567,0.182803596163901,704184,462256
1398.85434463244,0.185595108526243,700254,456731
1402.16872685072,0.188729030710528,696682,451134
1405.47883871051,0.192004885490932,693441,445661
1408.7846802118,0.195854409144177,690907,440114
1412.08625135461,0.199583874370201,688051,434547
1415.38355213892,0.203286237398253,685882,429500
1418.67658256475,0.206632812675932,683896,424969
1421.96534263208,0.209512837489805,682245,421141
1425.24983234092,0.212318259037143,680689,417475
1429.62250917284,0.215168194454221,679011,413722
1432.89703471187,0.216148111726287,678260,412333
1436.16728989241,0.217181157220579,676693,410403
1439.43327471445,0.217931811902744,675837,409176
1442.69498917801,0.218348376576003,674948,408246
1445.95243328308,0.21868007315295,674193,407478
1449.20560702965,0.218959587675659,673137,406578
1452.45451041774,0.218792312242985,671006,405447
1455.69914344733,0.218887268964361,668726,403981
1460.01867804025,0.218723128454588,666208,402612
1463.25334690003,0.218523800050227,663686,401272
1466.48374540132,0.218517228775171,660727,399489
1469.70987354412,0.217976882430331,657535,398054
1472.93173132843,0.217648080467785,654332,396415
1476.14931875425,0.217017587123779,651245,395118
1479.36263582158,0.216270009338228,647387,393454
1482.57168253042,0.21564711112703,643919,391908
1485.77645888076,0.214840072293072,639519,389954
1488.97696487262,0.214594919708967,635780,387893
1493.23766341522,0.213340073680086,629193,384985
1496.42820523726,0.212572410963828,624553,382822
1499.61447670082,0.211482026854584,619340,380581
1502.79647780588,0.21087768166521,613961,377801
1505.97420855245,0.210194524340707,608620,375104
1509.14766894053,0.209561640936164,602857,372094
1512.31685897012,0.208677237283011,596919,369180
1515.48177864122,0.208005411827423,590212,365597
1518.64242795382,0.206989673765264,584003,362598
1522.84998425743,0.206087444382675,575044,357778
1526.00066940022,0.205632334943169,568599,354139
1529.14708418453,0.2055932581375,561508,349754
1532.28922861034,0.20479526201259,553782,345576
1535.42710267766,0.204497660074706,546214,341087
1538.5607063865,0.203852810682888,538208,336587
1541.69003973684,0.203871742511726,529945,331405
1544.81510272869,0.203066863722715,521122,326492
1547.93589536205,0.20316028015456,512693,321142
1551.05241763692,0.202264188058439,504032,316369
1555.2011378902,0.202081529331354,492354,309169
1558.30769599526,0.201985934074587,484011,303997
1561.40998374183,0.201768152373375,475140,298575
1564.5080011299,0.201277016984127,465951,293132
1567.60174815948,0.201342856232538,456769,287312
1570.69122483058,0.200581969805216,446952,281630
1573.77643114318,0.200642523047075,437775,275809
1576.85736709729,0.200128386820198,428230,270115
1579.93403269291,0.200616380359018,418841,263896
1584.0296107072,0.200196586827428,406132,256136
1587.09631213301,0.19940993694747,396559,250552
1590.15874320033,0.198347298612188,387405,245368
1593.21690390916,0.198088360499012,377656,239336
1596.27079425949,0.197787640439754,368856,233921
1599.32041425134,0.196955663344953,359845,228644
1602.36576388469,0.196334807573192,350681,223140
1605.40684315956,0.195661272483934,341614,217708
1608.44365207593,0.196127899409748,332572,211718
1611.47619063381,0.194844751985999,323514,206561
1615.51293259778,0.194145946476638,311676,199323
1618.53550698585,0.194101811580407,303045,193823
1621.55381101543,0.194450649911151,294579,188257
1624.56784468652,0.193913116463357,285780,182860
1627.57760799912,0.193812390862597,277292,177470
1630.58310095323,0.193622468939205,268684,172036
1633.58432354884,0.193007179117404,260055,166747
1636.58127578597,0.19392876453659,251899,161175
1639.5739576646,0.19441091341568,243722,155770
1643.55755738958,0.194735184332483,232956,148778
1646.5402750984,0.194948407078686,224871,143544
1649.51872244873,0.195251067070173,216796,138293
1652.49289944057,0.195846075817514,208880,133061
1655.46280607392,0.196985520186052,201227,127850
1658.42844234878,0.198334492323046,193681,122674
1661.38980826515,0.199810511279606,186055,117444
1664.34690382303,0.200076172617455,177964,112268
1667.29972902242,0.200284241017301,168973,106545
1670.24828386331,0.20056090232433,160170,100930
1674.17304753796,0.201744376466466,145560,91474
1677.11163820905,0.203046519046458,133425,83597
1680.04595852164,0.202362498794047,119952,75274
1682.97600847574,0.203159008354617,106267,66564
1685.90178807136,0.203695946339585,92337,57767
1688.82329730848,0.204725335193028,79546,49647
1691.74053618711,0.202493966581791,67341,42246
1694.65350470725,0.205249015458636,57466,35823
1697.56220286889,0.206937344147813,48591,30173
1701.43382430455,0.209574183135852,39198,24193
