***Scan Config Information***,,,,,,,***Reference Scan Information***,,,,,,,,
Scan Config Name:,herbario,,,,,,Scan Config Name:,Local New Reference,,,,,,,
Scan Config Type:,Slew,Num Section:,1,,,,Scan Config Type:,Slew,Num Section:,1,,,,,
Section Config Type:,Column,,,,,,Section Config Type:,Column,,,,,,,
Start Wavelength (nm):,900,,,,,,Start Wavelength (nm):,900,,,,,,,
End Wavelength (nm):,1700,,,,,,End Wavelength (nm):,1700,,,,,,,
Pattern Width (nm):,7.03,,,,,,Pattern Width (nm):,7.03,,,,,,,
Exposure (ms):,0.635,,,,,,Exposure (ms):,0.635,,,,,,,
Digital Resolution:,228,,,,,,Digital Resolution:,228,,,,,,,
Num Repeats:,20,,,,,,Num Repeats:,20,,,,,,,
PGA Gain:,64,(FixedPGA),,,,,PGA Gain:,64,(AutoPGA),,,,,,
System Temp (C):,41.61,,,,,,System Temp (C):,41.48,,,,,,,
Humidity (%):,19.59,,,,,,Humidity (%):,19.53,,,,,,,
Lamp Indicator:,1123,,,,,,Lamp Indicator:,1127,,,,,,,
Data Date-Time:,2023/11/10T18:08:43,,,,,,Data Date-Time:,2023/11/10T18:07:38,,,,,,,
Total Measurement Time in sec:,6.7302693,,,,,,,,,,,,,,
,,,,,,,,,,,,,,,
***General Information***,,,,,,,***Calibration Coefficients***,,,,,,,,
Model Name:,NIR-S-G1,,,,,,Shift Vector Coefficients:,-5.08535400046452,0.0413457073195706,-8.39863846568903E-05,,,,,
Serial Number:,B07R011,(95UB122GC0AB07R011),,,,,Pixel to Wavelength Coefficients:,1794.37724621797,-0.920219689099738,-0.000237242138379873,,,,,
GUI Version:,3.9.4,Revision:,526,,,,Versions (Cal/Ref/Cfg):,1,3,1,,,,,
TIVA Version:,2.4.7,,,,,,***Lamp Usage ***,,,,,,,,
DLPC Version:,2.3.1,,,,,,Total Time(hh:mm:ss):,1hr 31min 5sec ,,,,,,,
UUID:,DE:67:0C:88:67:2B:47:21,,,,,,***Device/Error/Activation Status***,,,,,,,,
Main Board Version:,D,,,,,,Device Status:,0x00000001,Activation Status:,Activated,,,,,
Detector Board Version:,B,,,,,,Error status:,0x00000000,Error Code:,0x00000000000000000000000000000000,,,,,
,,,,,,,,,Error Details:,Not found,,,,,
***Scan Data***,,,,,,,,,,,,,,,
Wavelength (nm),Absorbance (AU),Reference Signal (unitless),Sample Signal (unitless)
901.81429527209,0.196485124388804,85682,54501
905.716563509274,0.19437921465225,92821,59329
909.614561387966,0.195365970738485,100504,64094
913.508288908168,0.192878460944888,109082,69964
917.397746069878,0.192207838621405,119367,76679
921.282932873098,0.19126612001231,133045,85651
925.163849317827,0.19096498293705,148820,95873
929.040495404065,0.190582889046933,167410,107944
932.912871131812,0.189839520823799,186212,120273
938.069395988934,0.189454510574348,210254,135922
941.931807546869,0.188877419062421,226044,146324
945.789948746314,0.188434525895908,240192,155641
949.643819587268,0.188029495307897,252338,163664
953.493420069731,0.188199283917331,263869,171076
957.338750193702,0.188269102140653,275270,178439
961.179809959184,0.187512729288658,285848,185619
965.016599366174,0.187899088927325,296172,192152
968.849118414673,0.187765343891657,305910,198531
973.952501032798,0.187889016114237,319015,206977
977.775055911486,0.187895513534244,328650,213225
981.593340431682,0.188087433716993,336934,218503
985.407354593388,0.188420130190448,345027,223580
989.217098396603,0.188038618868806,352259,228467
993.022571841327,0.187953626656275,358404,232498
996.823774927561,0.188453637822557,363899,235791
1000.6207076553,0.188428867612629,369582,239487
1004.41337002455,0.188062546124578,373927,242507
1008.20176203532,0.187821638481902,377392,244890
1013.24630860312,0.188389379761533,380870,246824
1017.02473644407,0.188313405777129,383042,248275
1020.79889392653,0.188264529478062,384884,249497
1024.5687810505,0.187827874860605,386083,250526
1028.33439781597,0.18778149245786,386427,250776
1032.09574422296,0.188347722679305,386800,250691
1035.85282027145,0.188199705344128,387134,250993
1039.60562596146,0.188490841303453,387372,250979
1043.35416129297,0.188207686145365,387246,251061
1048.34556562178,0.188441216888122,386695,250569
1052.08413678348,0.187844780703814,386434,250744
1055.81843758669,0.188108096585673,385922,250260
1059.54846803141,0.188595351769861,386312,250232
1063.27422811764,0.188558185649578,386228,250199
1066.99571784538,0.189059505915067,386399,250021
1070.71293721462,0.188665937093762,386750,250475
1074.42588622538,0.188373917775759,387959,251427
1078.13456487764,0.189132911646382,389310,251862
1081.83897317142,0.188667790697394,390933,253183
1086.77154144991,0.188720694559764,392965,254468
1090.46598557387,0.188901879828848,395366,255916
1094.15615933934,0.188754842373662,397958,257681
1097.84206274632,0.189034633806306,400242,258993
1101.52369579481,0.189182302790054,403119,260766
1105.20105848481,0.189534274343267,406568,262784
1108.87415081632,0.189304114359084,409937,265102
1112.54297278934,0.189259099228817,413276,267289
1116.20752440387,0.189163631406201,416940,269718
1121.08695044336,0.189935905043385,422588,272886
1124.74153788807,0.190302685703815,426609,275250
1128.3918549743,0.19047422207223,431550,278328
1132.03790170203,0.190815031053403,436035,281000
1135.67967807127,0.191071604962358,440682,283827
1139.31718408202,0.19161066123578,445778,286753
1142.95041973428,0.191750927137746,450934,289976
1146.57938502805,0.192420939270137,456502,293104
1150.20407996333,0.19268544752892,461365,296046
1153.82450454012,0.193060249980186,467274,299579
1158.6450945293,0.193843038318581,475358,304213
1162.25555493627,0.194180674157333,481054,307619
1165.86174498476,0.194602597057281,487415,311384
1169.46366467475,0.194617489394364,494299,315771
1173.06131400625,0.195182485902195,500756,319480
1176.65469297927,0.195024834043125,507882,324144
1180.24380159379,0.195688502036958,514898,328120
1183.82863984982,0.195486170262274,522954,333409
1187.40920774736,0.195825751732371,530565,337997
1192.17665549754,0.196536968727093,541142,344171
1195.74725922527,0.196252507102449,549161,349500
1199.3135925945,0.196545470348414,557692,354690
1202.87565560525,0.196353071474907,566023,360148
1206.43344825751,0.196365351031805,573910,365156
1209.98697055127,0.196477253139308,583143,370935
1213.53622248654,0.196568140380846,591808,376368
1217.08120406333,0.196310148367283,600293,381991
1220.62191528162,0.195904842286608,608365,387489
1224.15835614142,0.195264518460766,616541,393276
1228.86696784128,0.195324694328663,627235,400042
1232.39344453127,0.194648559095863,635051,405658
1235.91565086277,0.194558531471901,642537,410525
1239.43358683578,0.194124088813866,649392,415320
1242.94725245029,0.194155289793593,656283,419697
1246.45664770632,0.194294413674111,662772,423711
1249.96177260386,0.194067010310754,668158,427378
1253.4626271429,0.19398675476899,673632,430959
1256.95921132345,0.194043823236416,679375,434576
1261.61468078432,0.194342780784207,688716,440248
1265.10130079506,0.194018127319178,695661,445020
1268.58365044731,0.193840709481016,702110,449329
1272.06172974107,0.194264504867502,708384,452902
1275.53553867634,0.194172949589931,714324,456796
1279.00507725312,0.194046745359467,719241,460074
1282.4703454714,0.194138388544232,724459,463314
1285.9313433312,0.194101090159918,728981,466246
1289.38807083251,0.194012826003451,733091,468970
1292.84052797532,0.194223250178762,736374,470842
1297.43716138587,0.194249499842657,741278,473949
1300.87965435887,0.194262969422424,744498,475993
1304.31787697338,0.194350182193245,746833,477390
1307.7518292294,0.194593444803624,749075,478555
1311.18151112693,0.194647674365543,751379,479967
1314.60692266597,0.194842094465214,753042,480814
1318.02806384652,0.195249320064705,754167,481081
1321.44493466858,0.195851541748591,755427,481217
1324.85753513215,0.196252467549717,756043,481165
1329.4010263037,0.196881271113724,756701,480887
1332.80366259745,0.19743810720488,756539,480168
1336.20202853272,0.198198995713489,756090,479043
1339.59612410949,0.199150587661176,755863,477851
1342.98594932777,0.19986732712006,754822,476406
1346.37150418756,0.20112956745132,753056,473912
1349.75278868886,0.202164015981037,751096,471554
1353.12980283167,0.203308732593934,748776,468860
1356.50254661599,0.204071466367975,746515,466624
1359.87102004182,0.205165602452599,743617,463643
1364.35567516305,0.206423458688635,740958,460649
1367.71418441907,0.207392022230808,738998,458407
1371.06842331659,0.208391623184749,735931,455455
1374.41839185563,0.209249300764157,731321,451709
1377.76409003617,0.21040877613208,725424,446872
1381.10551785823,0.211820299050409,719434,441744
1384.44267532179,0.213749403422987,713736,436303
1387.77556242686,0.215691044651567,707908,430810
1391.10417917344,0.218373641808127,703027,425205
1395.53569205567,0.222811847920284,697166,417373
1398.85434463244,0.227029892427621,693614,411233
1402.16872685072,0.231610790202182,689891,404734
1405.47883871051,0.236966485735732,687255,398246
1408.7846802118,0.242592833715382,684430,391504
1412.08625135461,0.248459239490314,681591,384649
1415.38355213892,0.254260910148678,679160,378191
1418.67658256475,0.259963888883962,677502,372346
1421.96534263208,0.264765431487901,676043,367459
1425.24983234092,0.269354650861657,674365,362694
1429.62250917284,0.274447687423081,672528,357489
1432.89703471187,0.277730693931695,671683,354351
1436.16728989241,0.280204746716432,670152,351535
1439.43327471445,0.282258085480035,669524,349549
1442.69498917801,0.283566633112458,668555,347993
1445.95243328308,0.284736657563653,667810,346670
1449.20560702965,0.285629374976986,666750,345409
1452.45451041774,0.285501722505635,664605,344399
1455.69914344733,0.28575366078944,662523,343121
1460.01867804025,0.285344357156779,659748,342006
1463.25334690003,0.285096599175642,657197,340878
1466.48374540132,0.284636629231957,654248,339708
1469.70987354412,0.283820726573505,651190,338756
1472.93173132843,0.283279712961879,648325,337686
1476.14931875425,0.281982880169441,644874,336893
1479.36263582158,0.280426863276972,641387,336274
1482.57168253042,0.279732815934339,637514,334778
1485.77645888076,0.278279480703754,633435,333751
1488.97696487262,0.277274491362626,629532,332463
1493.23766341522,0.275801757042764,623385,330335
1496.42820523726,0.274220162176673,618385,328881
1499.61447670082,0.273195584201755,613375,326987
1502.79647780588,0.272212317023866,608196,324961
1505.97420855245,0.270666258346855,602689,323167
1509.14766894053,0.269600762669001,597164,320991
1512.31685897012,0.268384409496985,591162,318656
1515.48177864122,0.267245410478528,584751,316028
1518.64242795382,0.266127361561875,578534,313474
1522.84998425743,0.264720640019488,569623,309647
1526.00066940022,0.264009859414439,563224,306670
1529.14708418453,0.263286222139252,555979,303230
1532.28922861034,0.262550333235868,548688,299761
1535.42710267766,0.261376161192157,540675,296183
1538.5607063865,0.261129075025759,532911,292096
1541.69003973684,0.260516231230388,524300,287782
1544.81510272869,0.260606269203989,516748,283578
1547.93589536205,0.259862688601639,507798,279144
1551.05241763692,0.259542189413056,499267,274657
1555.2011378902,0.258864822319689,487915,268831
1558.30769599526,0.258695511481226,479519,264308
1561.40998374183,0.257680623297967,470671,260038
1564.5080011299,0.257036758679262,461557,255381
1567.60174815948,0.256615068457248,452473,250598
1570.69122483058,0.256230861228702,442869,245496
1573.77643114318,0.255797326036997,433546,240568
1576.85736709729,0.256545738035241,424399,235087
1579.93403269291,0.25513509619006,414605,230409
1584.0296107072,0.254440235580513,402146,223843
1587.09631213301,0.253952842929022,392803,218888
1590.15874320033,0.25364997281253,383916,214085
1593.21690390916,0.253396995201097,374319,208855
1596.27079425949,0.252337063570318,365497,204431
1599.32041425134,0.251320998786593,356338,199775
1602.36576388469,0.250452240900391,347302,195099
1605.40684315956,0.250144302070714,338286,190169
1608.44365207593,0.249253939143341,329365,185534
1611.47619063381,0.248208109635967,320329,180879
1615.51293259778,0.248427015388557,309016,174403
1618.53550698585,0.247181722987231,300133,169876
1621.55381101543,0.247793072194394,291736,164891
1624.56784468652,0.247250118783982,283031,160171
1627.57760799912,0.247887623928748,275025,155412
1630.58310095323,0.247389362444176,266294,150651
1633.58432354884,0.246949790625763,257983,146097
1636.58127578597,0.247654012967106,249613,141128
1639.5739576646,0.247536027688667,241689,136685
1643.55755738958,0.248616691005256,230762,130181
1646.5402750984,0.249783305263102,222885,125400
1649.51872244873,0.25054466424304,215189,120858
1652.49289944057,0.25228466587723,207229,115922
1655.46280607392,0.25391237146968,199762,111327
1658.42844234878,0.254912210417575,191818,106654
1661.38980826515,0.255466565847674,183999,102176
1664.34690382303,0.255571264766716,176244,97846
1667.29972902242,0.259041256999701,167864,92452
1670.24828386331,0.258856330470436,158747,87468
1674.17304753796,0.26076234930067,144842,79457
1677.11163820905,0.259607514307885,132500,72880
1680.04595852164,0.259237491311854,119430,65747
1682.97600847574,0.260060394781071,105874,58174
1685.90178807136,0.261553782100614,92290,50536
1688.82329730848,0.263053717656065,79415,43336
1691.74053618711,0.264759313645107,67690,36793
1694.65350470725,0.261712475646221,56851,31119
1697.56220286889,0.265630735233524,48726,26432
1701.43382430455,0.269478450394626,39029,20985
