***Scan Config Information***,,,,,,,***Reference Scan Information***,,,,,,,,
Scan Config Name:,herbario,,,,,,Scan Config Name:,Local New Reference,,,,,,,
Scan Config Type:,Slew,Num Section:,1,,,,Scan Config Type:,Slew,Num Section:,1,,,,,
Section Config Type:,Column,,,,,,Section Config Type:,Column,,,,,,,
Start Wavelength (nm):,900,,,,,,Start Wavelength (nm):,900,,,,,,,
End Wavelength (nm):,1700,,,,,,End Wavelength (nm):,1700,,,,,,,
Pattern Width (nm):,7.03,,,,,,Pattern Width (nm):,7.03,,,,,,,
Exposure (ms):,0.635,,,,,,Exposure (ms):,0.635,,,,,,,
Digital Resolution:,228,,,,,,Digital Resolution:,228,,,,,,,
Num Repeats:,20,,,,,,Num Repeats:,20,,,,,,,
PGA Gain:,64,(FixedPGA),,,,,PGA Gain:,64,(AutoPGA),,,,,,
System Temp (C):,40.14,,,,,,System Temp (C):,39.74,,,,,,,
Humidity (%):,23.6,,,,,,Humidity (%):,23.78,,,,,,,
Lamp Indicator:,1111,,,,,,Lamp Indicator:,1113,,,,,,,
Data Date-Time:,2023/11/13T11:29:37,,,,,,Data Date-Time:,2023/11/13T11:27:05,,,,,,,
Total Measurement Time in sec:,6.7724453,,,,,,,,,,,,,,
,,,,,,,,,,,,,,,
***General Information***,,,,,,,***Calibration Coefficients***,,,,,,,,
Model Name:,NIR-S-G1,,,,,,Shift Vector Coefficients:,-5.08535400046452,0.0413457073195706,-8.39863846568903E-05,,,,,
Serial Number:,B07R011,(95UB122GC0AB07R011),,,,,Pixel to Wavelength Coefficients:,1794.37724621797,-0.920219689099738,-0.000237242138379873,,,,,
GUI Version:,3.9.4,Revision:,526,,,,Versions (Cal/Ref/Cfg):,1,3,1,,,,,
TIVA Version:,2.4.7,,,,,,***Lamp Usage ***,,,,,,,,
DLPC Version:,2.3.1,,,,,,Total Time(hh:mm:ss):,1hr 53min 49sec ,,,,,,,
UUID:,DE:67:0C:88:67:2B:47:21,,,,,,***Device/Error/Activation Status***,,,,,,,,
Main Board Version:,D,,,,,,Device Status:,0x00000001,Activation Status:,Activated,,,,,
Detector Board Version:,B,,,,,,Error status:,0x00000000,Error Code:,0x00000000000000000000000000000000,,,,,
,,,,,,,,,Error Details:,Not found,,,,,
***Scan Data***,,,,,,,,,,,,,,,
Wavelength (nm),Absorbance (AU),Reference Signal (unitless),Sample Signal (unitless)
901.81429527209,0.210169608387321,86155,53102
905.716563509274,0.214568342255211,94173,57459
909.614561387966,0.211928926098281,101627,62385
913.508288908168,0.209168849024322,110485,68255
917.397746069878,0.208682824884694,121573,75189
921.282932873098,0.208313044235993,135069,83607
925.163849317827,0.205378169245518,151544,94441
929.040495404065,0.202561408795988,169949,106600
932.912871131812,0.202459513540664,189522,118905
938.069395988934,0.200393251624509,213320,134474
941.931807546869,0.200034981689658,229492,144788
945.789948746314,0.198729905653098,243473,154071
949.643819587268,0.196648310695951,255875,162697
953.493420069731,0.196705595937068,267649,170161
957.338750193702,0.195552455220993,279130,177932
961.179809959184,0.194412602819234,289598,185090
965.016599366174,0.193162276269022,299702,192100
968.849118414673,0.192363536244213,309884,198992
973.952501032798,0.191534212235345,323067,207854
977.775055911486,0.190949462124159,332866,214447
981.593340431682,0.189923845749197,341225,220352
985.407354593388,0.189611599142977,349209,225670
989.217098396603,0.18868731253411,356859,231105
993.022571841327,0.187838629375842,362914,235486
996.823774927561,0.187577689648964,368538,239279
1000.6207076553,0.186554426608645,373943,243361
1004.41337002455,0.185736000815899,378613,246865
1008.20176203532,0.184689589637114,382122,249754
1013.24630860312,0.184235278041469,385438,252185
1017.02473644407,0.183819946316176,387702,253909
1020.79889392653,0.182753295676361,389546,255744
1024.5687810505,0.182429793843936,390606,256631
1028.33439781597,0.181375631646033,391062,257555
1032.09574422296,0.181093497829335,391198,257812
1035.85282027145,0.180501011389333,391786,258552
1039.60562596146,0.179607021081456,391496,258893
1043.35416129297,0.179075217940348,391689,259338
1048.34556562178,0.178804476727957,390980,259030
1052.08413678348,0.177987529298307,390768,259377
1055.81843758669,0.177620554802015,390596,259482
1059.54846803141,0.177006544617073,390205,259589
1063.27422811764,0.176828986512939,390340,259785
1066.99571784538,0.176617948640071,390260,259858
1070.71293721462,0.176220608617624,391210,260729
1074.42588622538,0.175617911714249,392016,261629
1078.13456487764,0.175343999941072,393413,262727
1081.83897317142,0.175482242325475,395141,263797
1086.77154144991,0.17434135308175,397158,265841
1090.46598557387,0.17508622067688,399462,266925
1094.15615933934,0.173782600800208,401592,269155
1097.84206274632,0.173438891650071,404098,271049
1101.52369579481,0.17363293918011,407026,272891
1105.20105848481,0.173066115808492,410517,275591
1108.87415081632,0.173294556023551,413982,277771
1112.54297278934,0.172927604164145,417306,280238
1116.20752440387,0.17343713771486,421122,282469
1121.08695044336,0.173465713714083,426544,286087
1124.74153788807,0.17282881181799,430683,289287
1128.3918549743,0.173416943596583,435417,292071
1132.03790170203,0.173000035073328,439999,295428
1135.67967807127,0.173943046407316,444875,298054
1139.31718408202,0.174431680226302,449769,300994
1142.95041973428,0.174021720521185,455025,304799
1146.57938502805,0.174316949555405,460324,308139
1150.20407996333,0.174690429663623,465219,311148
1153.82450454012,0.175214075607865,471355,314872
1158.6450945293,0.176215816252747,479491,319569
1162.25555493627,0.176187484045354,485236,323419
1165.86174498476,0.176573148817041,491444,327266
1169.46366467475,0.176779128670624,498223,331623
1173.06131400625,0.17736911587503,505097,335742
1176.65469297927,0.17769233595114,512388,340335
1180.24380159379,0.177704640260271,519140,344810
1183.82863984982,0.177879002313884,527146,349987
1187.40920774736,0.178714119686734,535362,354759
1192.17665549754,0.178484331693625,545486,361659
1195.74725922527,0.178586003042646,553694,367015
1199.3135925945,0.179013894819155,562470,372465
1202.87565560525,0.178913653924362,570570,377916
1206.43344825751,0.178615460818802,578828,383649
1209.98697055127,0.178398437428217,588009,389929
1213.53622248654,0.178169916004195,596354,395671
1217.08120406333,0.178190574861237,604912,401330
1220.62191528162,0.177627384735206,613315,407433
1224.15835614142,0.177320350148275,621531,413183
1228.86696784128,0.177060376821523,632574,420776
1232.39344453127,0.176376358813492,639999,426386
1235.91565086277,0.175907858728938,647515,431859
1239.43358683578,0.175728281646466,654200,436498
1242.94725245029,0.175742655135995,661260,441194
1246.45664770632,0.175309590959796,667785,445992
1249.96177260386,0.175106521576351,673564,450062
1253.4626271429,0.174972626894705,678928,453786
1256.95921132345,0.175031710029786,684494,457444
1261.61468078432,0.174667441326552,693852,464087
1265.10130079506,0.174886164944247,701051,468666
1268.58365044731,0.174709517324412,707484,473159
1272.06172974107,0.174521457162192,713863,477632
1275.53553867634,0.174599353717659,719673,481433
1279.00507725312,0.174466648974603,724957,485116
1282.4703454714,0.174239426335018,730031,488767
1285.9313433312,0.174286083688111,734655,491810
1289.38807083251,0.174046108923544,738734,494814
1292.84052797532,0.174091670103618,742171,497064
1297.43716138587,0.173993442353653,746992,500406
1300.87965435887,0.173960304205937,750392,502722
1304.31787697338,0.173905781890097,752835,504422
1307.7518292294,0.174093437668373,755300,505855
1311.18151112693,0.174096495132936,757112,507065
1314.60692266597,0.174309237524762,759056,508118
1318.02806384652,0.174528257664235,760104,508563
1321.44493466858,0.174778470860544,760889,508795
1324.85753513215,0.174914194733373,761800,509245
1329.4010263037,0.175946935027359,762696,508633
1332.80366259745,0.176043974894378,762295,508252
1336.20202853272,0.176516131944623,761893,507432
1339.59612410949,0.17741624647767,761757,506291
1342.98594932777,0.177883588259901,760595,504975
1346.37150418756,0.178787269862986,758738,502695
1349.75278868886,0.179674045015285,756597,500254
1353.12980283167,0.180682523694722,754225,497529
1356.50254661599,0.181532505864253,751881,495013
1359.87102004182,0.182521189435655,749061,492035
1364.35567516305,0.183571416882343,746301,489038
1367.71418441907,0.184313035348291,744137,486788
1371.06842331659,0.185108159298492,741430,484130
1374.41839185563,0.185551524425486,736581,480473
1377.76409003617,0.186570883290392,730787,475576
1381.10551785823,0.18776265025583,724644,470286
1384.44267532179,0.189090080440971,718629,464959
1387.77556242686,0.190918835291466,713128,459461
1391.10417917344,0.193542389269855,708283,453591
1395.53569205567,0.196725843017423,702354,446509
1398.85434463244,0.200201625028551,698541,440545
1402.16872685072,0.204001874368316,694875,434415
1405.47883871051,0.208570688247458,692305,428279
1408.7846802118,0.212698693684147,689326,422402
1412.08625135461,0.217749933784726,686700,415927
1415.38355213892,0.221844305319344,684033,410424
1418.67658256475,0.226117283212108,682411,405442
1421.96534263208,0.229906779470521,680566,400833
1425.24983234092,0.23294008281524,679215,397253
1429.62250917284,0.236961451562077,677207,392428
1432.89703471187,0.238829847610239,676657,390426
1436.16728989241,0.240446001809247,675297,388194
1439.43327471445,0.240992364945242,674313,387141
1442.69498917801,0.24187078421606,673549,385921
1445.95243328308,0.242203765675852,672698,385138
1449.20560702965,0.242344404797372,671588,384378
1452.45451041774,0.242790362068522,669609,382852
1455.69914344733,0.242842551019224,667405,381546
1460.01867804025,0.242423756585981,664448,380222
1463.25334690003,0.242257981912154,662065,379003
1466.48374540132,0.241867790086374,659130,377662
1469.70987354412,0.241982722409434,656101,375827
1472.93173132843,0.240909137707025,652926,374934
1476.14931875425,0.240360377605181,649677,373540
1479.36263582158,0.239387371370635,645981,372248
1482.57168253042,0.238737082988407,642223,370637
1485.77645888076,0.237830374831271,638072,369011
1488.97696487262,0.23738781409905,634109,367093
1493.23766341522,0.236285021369675,627499,364190
1496.42820523726,0.235523173344781,622586,361973
1499.61447670082,0.234733642956462,617891,359897
1502.79647780588,0.23377247942542,612561,357583
1505.97420855245,0.233374266704706,607026,354677
1509.14766894053,0.231948524208817,601304,352489
1512.31685897012,0.231181191318813,595420,349657
1515.48177864122,0.230274053496801,588733,346453
1518.64242795382,0.22954336148392,582905,343601
1522.84998425743,0.228265174352249,574081,339397
1526.00066940022,0.227249142619657,567061,336032
1529.14708418453,0.226767111190137,560190,332329
1532.28922861034,0.226545793224705,552505,327937
1535.42710267766,0.226035770429594,544644,323651
1538.5607063865,0.225304815296906,536736,319489
1541.69003973684,0.224899581964601,528367,314801
1544.81510272869,0.22451226737179,519882,310022
1547.93589536205,0.223827629819568,511199,305325
1551.05241763692,0.223858176206058,502868,300328
1555.2011378902,0.223071436635348,491099,293831
1558.30769599526,0.22310225475342,482743,288811
1561.40998374183,0.223188914132315,473967,283504
1564.5080011299,0.222251587708493,464871,278664
1567.60174815948,0.222383300019235,455522,272977
1570.69122483058,0.221928917062808,446069,267592
1573.77643114318,0.222186286180441,436776,261862
1576.85736709729,0.221958554989349,427208,256260
1579.93403269291,0.222028989315813,417740,250540
1584.0296107072,0.221189708705302,404965,243348
1587.09631213301,0.221287561715327,395715,237736
1590.15874320033,0.22024164778142,386620,232832
1593.21690390916,0.219184678891487,376558,227325
1596.27079425949,0.219081646125803,367761,222067
1599.32041425134,0.21905230699672,358885,216722
1602.36576388469,0.218241260142193,349832,211650
1605.40684315956,0.21755497526307,340586,206382
1608.44365207593,0.21752590674437,331720,201023
1611.47619063381,0.216766668049876,322695,195896
1615.51293259778,0.216647311987612,310848,188756
1618.53550698585,0.216387530312818,302242,183640
1621.55381101543,0.215772765798102,293472,178564
1624.56784468652,0.21583098885422,284673,173187
1627.57760799912,0.215497598976177,276482,168333
1630.58310095323,0.21596330071701,268079,163042
1633.58432354884,0.215474345388056,259347,157909
1636.58127578597,0.21649333587492,251055,152502
1639.5739576646,0.216610738573999,242789,147441
1643.55755738958,0.217109849125987,232026,140743
1646.5402750984,0.217530856010062,224048,135772
1649.51872244873,0.219207437032696,216380,130620
1652.49289944057,0.220010554439177,208099,125389
1655.46280607392,0.222205675104287,200443,120167
1658.42844234878,0.223505300799893,192886,115291
1661.38980826515,0.223427062698883,184603,110360
1664.34690382303,0.22553012384133,176404,104949
1667.29972902242,0.22705113046939,167486,99295
1670.24828386331,0.226812485190478,157950,93693
1674.17304753796,0.226542812204429,142694,84696
1677.11163820905,0.228406998247128,129775,76698
1680.04595852164,0.227227140498275,115807,68629
1682.97600847574,0.226417776560076,101477,60249
1685.90178807136,0.228836867887432,88147,52044
1688.82329730848,0.229623752625148,75296,44376
1691.74053618711,0.233804506925815,64092,37411
1694.65350470725,0.234163285409972,54238,31633
1697.56220286889,0.231739727525593,45994,26975
1701.43382430455,0.234214778219847,36786,21452
