***Scan Config Information***,,,,,,,***Reference Scan Information***,,,,,,,,
Scan Config Name:,herbario,,,,,,Scan Config Name:,Local New Reference,,,,,,,
Scan Config Type:,Slew,Num Section:,1,,,,Scan Config Type:,Slew,Num Section:,1,,,,,
Section Config Type:,Column,,,,,,Section Config Type:,Column,,,,,,,
Start Wavelength (nm):,900,,,,,,Start Wavelength (nm):,900,,,,,,,
End Wavelength (nm):,1700,,,,,,End Wavelength (nm):,1700,,,,,,,
Pattern Width (nm):,7.03,,,,,,Pattern Width (nm):,7.03,,,,,,,
Exposure (ms):,0.635,,,,,,Exposure (ms):,0.635,,,,,,,
Digital Resolution:,228,,,,,,Digital Resolution:,228,,,,,,,
Num Repeats:,20,,,,,,Num Repeats:,20,,,,,,,
PGA Gain:,64,(FixedPGA),,,,,PGA Gain:,64,(AutoPGA),,,,,,
System Temp (C):,29.31,,,,,,System Temp (C):,28.45,,,,,,,
Humidity (%):,35.3,,,,,,Humidity (%):,35.84,,,,,,,
Lamp Indicator:,1031,,,,,,Lamp Indicator:,1029,,,,,,,
Data Date-Time:,2023/11/13T15:49:50,,,,,,Data Date-Time:,2023/11/13T15:48:30,,,,,,,
Total Measurement Time in sec:,6.7262008,,,,,,,,,,,,,,
,,,,,,,,,,,,,,,
***General Information***,,,,,,,***Calibration Coefficients***,,,,,,,,
Model Name:,NIR-S-G1,,,,,,Shift Vector Coefficients:,-5.08535400046452,0.0413457073195706,-8.39863846568903E-05,,,,,
Serial Number:,B07R011,(95UB122GC0AB07R011),,,,,Pixel to Wavelength Coefficients:,1794.37724621797,-0.920219689099738,-0.000237242138379873,,,,,
GUI Version:,3.9.4,Revision:,526,,,,Versions (Cal/Ref/Cfg):,1,3,1,,,,,
TIVA Version:,2.4.7,,,,,,***Lamp Usage ***,,,,,,,,
DLPC Version:,2.3.1,,,,,,Total Time(hh:mm:ss):,2hr 8min 10sec ,,,,,,,
UUID:,DE:67:0C:88:67:2B:47:21,,,,,,***Device/Error/Activation Status***,,,,,,,,
Main Board Version:,D,,,,,,Device Status:,0x00000001,Activation Status:,Activated,,,,,
Detector Board Version:,B,,,,,,Error status:,0x00000000,Error Code:,0x00000000000000000000000000000000,,,,,
,,,,,,,,,Error Details:,Not found,,,,,
***Scan Data***,,,,,,,,,,,,,,,
Wavelength (nm),Absorbance (AU),Reference Signal (unitless),Sample Signal (unitless)
901.81429527209,0.159858340227647,86110,59593
905.716563509274,0.160786515933547,93856,64815
909.614561387966,0.158741787042618,101675,70546
913.508288908168,0.159496479585009,111424,77176
917.397746069878,0.157058543693424,123061,85716
921.282932873098,0.156707685897795,137961,96172
925.163849317827,0.157693414317717,156415,108789
929.040495404065,0.15784973929584,176340,122603
932.912871131812,0.156231451735493,195830,136662
938.069395988934,0.155398316560051,218491,152769
941.931807546869,0.154634957963252,232991,163194
945.789948746314,0.153967207509382,245779,172416
949.643819587268,0.153498185430084,257250,180658
953.493420069731,0.152601298143372,268150,188702
957.338750193702,0.152818385926255,278785,196088
961.179809959184,0.152321949361667,288981,203492
965.016599366174,0.152836454149369,299269,210487
968.849118414673,0.152307448501303,309176,217720
973.952501032798,0.152496633035191,322094,226718
977.775055911486,0.152204402909361,331814,233717
981.593340431682,0.151875076946703,339924,239611
985.407354593388,0.152734768933052,348218,244972
989.217098396603,0.152539364770695,355434,250161
993.022571841327,0.15151431367705,361665,255148
996.823774927561,0.15206194131198,367093,258651
1000.6207076553,0.151411547475199,372609,262931
1004.41337002455,0.151335762860229,376891,265999
1008.20176203532,0.151460104369983,380185,268247
1013.24630860312,0.150921130163889,383643,271023
1017.02473644407,0.150316096190439,385724,272873
1020.79889392653,0.150177074199905,387309,274082
1024.5687810505,0.150199740820142,388635,275006
1028.33439781597,0.150279069462333,389106,275289
1032.09574422296,0.14965924899831,389086,275668
1035.85282027145,0.149447386054999,389548,276130
1039.60562596146,0.149143089331069,389340,276176
1043.35416129297,0.149163261231816,389547,276310
1048.34556562178,0.148846610777971,388994,276119
1052.08413678348,0.148158705706762,388692,276342
1055.81843758669,0.148146920703757,388282,276058
1059.54846803141,0.148310743490805,388330,275988
1063.27422811764,0.147639259127431,388580,276593
1066.99571784538,0.148117381843004,388520,276246
1070.71293721462,0.147729124376145,389037,276861
1074.42588622538,0.147751915876476,390339,277773
1078.13456487764,0.147549399389736,391313,278596
1081.83897317142,0.147574813652616,393110,279859
1086.77154144991,0.147098889849829,395257,281696
1090.46598557387,0.14682608174125,397380,283387
1094.15615933934,0.147543421973207,400339,285026
1097.84206274632,0.147179960991968,402279,286647
1101.52369579481,0.147424339787328,405516,288791
1105.20105848481,0.147024482904443,408629,291276
1108.87415081632,0.146861996872258,412062,293833
1112.54297278934,0.147124561959848,415453,296072
1116.20752440387,0.146981608350018,419049,298733
1121.08695044336,0.147655222133562,424465,302125
1124.74153788807,0.14796376156311,428782,304981
1128.3918549743,0.148888140589036,433418,307623
1132.03790170203,0.149414919609249,438104,310572
1135.67967807127,0.14945453729767,442578,313715
1139.31718408202,0.150409574680967,447719,316662
1142.95041973428,0.151038526283466,452845,319824
1146.57938502805,0.151910651829328,457952,322782
1150.20407996333,0.152636867354879,463087,325856
1153.82450454012,0.153517232096874,468669,329116
1158.6450945293,0.154639335730455,476586,333812
1162.25555493627,0.156078354285249,482478,336821
1165.86174498476,0.157590429655306,489153,340294
1169.46366467475,0.157832998310286,495267,344355
1173.06131400625,0.159073895783087,502393,348313
1176.65469297927,0.160276270588879,509363,352169
1180.24380159379,0.161236303046066,516000,355970
1183.82863984982,0.162777332431274,523976,360192
1187.40920774736,0.163720703119007,532017,364926
1192.17665549754,0.164312872194411,542197,371402
1195.74725922527,0.164536786898083,550177,376674
1199.3135925945,0.165096632474332,558831,382106
1202.87565560525,0.165360220389248,567036,387481
1206.43344825751,0.165363012964269,575482,393250
1209.98697055127,0.164909321420796,584433,399784
1213.53622248654,0.164365119486315,592822,406031
1217.08120406333,0.163375008497689,601283,412766
1220.62191528162,0.162063886055311,609538,419698
1224.15835614142,0.161125880856581,618118,426526
1228.86696784128,0.159520979293551,628733,435457
1232.39344453127,0.158609681794791,636681,441888
1235.91565086277,0.157942863701079,644297,447861
1239.43358683578,0.157206319497831,650883,453207
1242.94725245029,0.156575681895665,657783,458677
1246.45664770632,0.156221766394741,664439,463696
1249.96177260386,0.155655708284373,670102,468258
1253.4626271429,0.155466823586557,675488,472227
1256.95921132345,0.155186670831551,680982,476375
1261.61468078432,0.155162458353285,689938,482667
1265.10130079506,0.154879185407501,697372,488186
1268.58365044731,0.154649366187507,703742,492906
1272.06172974107,0.154533175837914,710151,497528
1275.53553867634,0.154439153767234,715881,501651
1279.00507725312,0.154152872778946,721185,505701
1282.4703454714,0.154188770806619,726486,509376
1285.9313433312,0.154061449499442,730944,512652
1289.38807083251,0.153835600469735,735147,515868
1292.84052797532,0.153492347173601,738492,518625
1297.43716138587,0.15346256125695,743281,522024
1300.87965435887,0.153482007975941,746716,524413
1304.31787697338,0.153668150982942,749237,525958
1307.7518292294,0.15355025069719,751664,527805
1311.18151112693,0.153557744468543,753695,529222
1314.60692266597,0.154079283148666,755921,530148
1318.02806384652,0.153960200907835,756589,530762
1321.44493466858,0.15457541325641,757603,530721
1324.85753513215,0.155201343112258,758527,530603
1329.4010263037,0.155655386210177,759070,530428
1332.80366259745,0.156439695316652,759007,529427
1336.20202853272,0.157588150444025,759059,528065
1339.59612410949,0.158430359936649,758483,526642
1342.98594932777,0.159443164485705,757462,524708
1346.37150418756,0.161084322843731,755958,521691
1349.75278868886,0.16224379971842,753934,518907
1353.12980283167,0.164147458650324,751454,514938
1356.50254661599,0.165700723481515,749517,511777
1359.87102004182,0.167046570250323,746393,508067
1364.35567516305,0.169561124058659,743673,503293
1367.71418441907,0.170758854438299,741541,500468
1371.06842331659,0.172150862281326,738887,497081
1374.41839185563,0.173428275710475,734158,492449
1377.76409003617,0.175239070352935,728809,486827
1381.10551785823,0.176958456339099,722377,480624
1384.44267532179,0.179267082882277,716655,474289
1387.77556242686,0.181585385080237,711001,468042
1391.10417917344,0.184146987110849,705979,462003
1395.53569205567,0.188270966952224,699832,453652
1398.85434463244,0.19208067531595,695733,447056
1402.16872685072,0.197918565302461,692615,439110
1405.47883871051,0.203740422948198,689426,431268
1408.7846802118,0.210513994873159,686614,422862
1412.08625135461,0.21774542458097,683835,414196
1415.38355213892,0.224553467461327,681164,406161
1418.67658256475,0.230990061464262,679304,399093
1421.96534263208,0.237150579892111,677830,392618
1425.24983234092,0.242557883638596,676395,386939
1429.62250917284,0.248450394870422,674119,380440
1432.89703471187,0.252382371449214,673509,376670
1436.16728989241,0.25545921540118,671903,373119
1439.43327471445,0.257796189482613,671022,370630
1442.69498917801,0.259433809819035,670344,368862
1445.95243328308,0.260757234380457,669517,367286
1449.20560702965,0.261575336875879,668323,365941
1452.45451041774,0.261546511264791,666184,364794
1455.69914344733,0.261549325341959,663964,363576
1460.01867804025,0.261066356448135,661141,362433
1463.25334690003,0.261033110840719,659042,361310
1466.48374540132,0.260829301798415,656122,359878
1469.70987354412,0.260143821434372,653114,358794
1472.93173132843,0.259673333158882,649963,357450
1476.14931875425,0.258622195429614,646625,356476
1479.36263582158,0.257457296234733,642921,355386
1482.57168253042,0.256648711732059,639291,354038
1485.77645888076,0.25526033198248,635033,352806
1488.97696487262,0.254099106586952,631158,351592
1493.23766341522,0.252235839019717,624654,349465
1496.42820523726,0.251153089956012,619825,347629
1499.61447670082,0.250174530934615,615057,345733
1502.79647780588,0.248875685269748,609884,343852
1505.97420855245,0.247766073902453,604264,341555
1509.14766894053,0.2462465526889,598624,339553
1512.31685897012,0.244892580094164,592627,337201
1515.48177864122,0.244003498637975,586113,334178
1518.64242795382,0.242486397808194,580238,331986
1522.84998425743,0.241659313505631,571359,327529
1526.00066940022,0.240471969939714,564747,324625
1529.14708418453,0.23993559679254,557800,321028
1532.28922861034,0.239219994496381,550217,317186
1535.42710267766,0.238684596113021,542453,313096
1538.5607063865,0.238007737247092,534611,309051
1541.69003973684,0.237631099219853,526370,304551
1544.81510272869,0.237457700487432,518128,299902
1547.93589536205,0.236921340013552,509363,295193
1551.05241763692,0.236331068147914,501084,290790
1555.2011378902,0.236025211451403,489473,284252
1558.30769599526,0.236094453901189,481162,279381
1561.40998374183,0.235715738899796,472397,274531
1564.5080011299,0.235371113780266,463434,269536
1567.60174815948,0.235026265272941,453904,264203
1570.69122483058,0.234121052091703,444277,259139
1573.77643114318,0.23407849964637,435021,253765
1576.85736709729,0.233660003005608,425669,248549
1579.93403269291,0.233328645004681,415850,243001
1584.0296107072,0.232962727677524,403411,235931
1587.09631213301,0.231799683736047,393925,231001
1590.15874320033,0.231371716647676,385007,225994
1593.21690390916,0.230920767397008,375089,220401
1596.27079425949,0.229670636355042,366120,215751
1599.32041425134,0.229228713158132,357480,210874
1602.36576388469,0.228129058679425,348172,205904
1605.40684315956,0.227770904944902,338878,200573
1608.44365207593,0.227260995096827,329570,195293
1611.47619063381,0.226559375364883,320912,190470
1615.51293259778,0.225076932522688,308775,183893
1618.53550698585,0.225502397783526,300247,178639
1621.55381101543,0.224624634664272,291462,173763
1624.56784468652,0.225057586197337,282827,168447
1627.57760799912,0.224885240399671,274469,163534
1630.58310095323,0.224850085187673,265621,158275
1633.58432354884,0.224557387115101,257179,153348
1636.58127578597,0.225300697777934,248919,148169
1639.5739576646,0.224680152104275,240523,143376
1643.55755738958,0.224907950857661,229177,136541
1646.5402750984,0.225504567145148,221016,131498
1649.51872244873,0.22657791611833,212707,126242
1652.49289944057,0.227271520700815,203539,120608
1655.46280607392,0.228427993074427,194567,114985
1658.42844234878,0.229673161916606,184915,108968
1661.38980826515,0.228137887743413,173797,102779
1664.34690382303,0.229412460550731,161422,95181
1667.29972902242,0.230000097893003,147197,86676
1670.24828386331,0.229075731770964,132117,77962
1674.17304753796,0.229147456345792,110688,65306
1677.11163820905,0.231823031215676,94840,55612
1680.04595852164,0.232204876174687,80519,47173
1682.97600847574,0.23652192052751,68168,39542
1685.90178807136,0.241391407448015,57256,32842
1688.82329730848,0.244118403249771,48601,27703
1691.74053618711,0.249871626581562,41267,23213
1694.65350470725,0.25027300555897,35152,19755
1697.56220286889,0.251080734888863,29798,16715
1701.43382430455,0.257261300799669,24426,13508
