***Scan Config Information***,,,,,,,***Reference Scan Information***,,,,,,,,
Scan Config Name:,herbario,,,,,,Scan Config Name:,Local New Reference,,,,,,,
Scan Config Type:,Slew,Num Section:,1,,,,Scan Config Type:,Slew,Num Section:,1,,,,,
Section Config Type:,Column,,,,,,Section Config Type:,Column,,,,,,,
Start Wavelength (nm):,900,,,,,,Start Wavelength (nm):,900,,,,,,,
End Wavelength (nm):,1700,,,,,,End Wavelength (nm):,1700,,,,,,,
Pattern Width (nm):,7.03,,,,,,Pattern Width (nm):,7.03,,,,,,,
Exposure (ms):,0.635,,,,,,Exposure (ms):,0.635,,,,,,,
Digital Resolution:,228,,,,,,Digital Resolution:,228,,,,,,,
Num Repeats:,20,,,,,,Num Repeats:,20,,,,,,,
PGA Gain:,64,(FixedPGA),,,,,PGA Gain:,64,(AutoPGA),,,,,,
System Temp (C):,40.01,,,,,,System Temp (C):,39.9,,,,,,,
Humidity (%):,28.25,,,,,,Humidity (%):,28.35,,,,,,,
Lamp Indicator:,1109,,,,,,Lamp Indicator:,1113,,,,,,,
Data Date-Time:,2023/11/10T13:36:29,,,,,,Data Date-Time:,2023/11/10T13:35:27,,,,,,,
Total Measurement Time in sec:,6.776368,,,,,,,,,,,,,,
,,,,,,,,,,,,,,,
***General Information***,,,,,,,***Calibration Coefficients***,,,,,,,,
Model Name:,NIR-S-G1,,,,,,Shift Vector Coefficients:,-5.08535400046452,0.0413457073195706,-8.39863846568903E-05,,,,,
Serial Number:,B07R011,(95UB122GC0AB07R011),,,,,Pixel to Wavelength Coefficients:,1794.37724621797,-0.920219689099738,-0.000237242138379873,,,,,
GUI Version:,3.9.4,Revision:,526,,,,Versions (Cal/Ref/Cfg):,1,3,1,,,,,
TIVA Version:,2.4.7,,,,,,***Lamp Usage ***,,,,,,,,
DLPC Version:,2.3.1,,,,,,Total Time(hh:mm:ss):,52min 40sec ,,,,,,,
UUID:,DE:67:0C:88:67:2B:47:21,,,,,,***Device/Error/Activation Status***,,,,,,,,
Main Board Version:,D,,,,,,Device Status:,0x00000001,Activation Status:,Activated,,,,,
Detector Board Version:,B,,,,,,Error status:,0x00000000,Error Code:,0x00000000000000000000000000000000,,,,,
,,,,,,,,,Error Details:,Not found,,,,,
***Scan Data***,,,,,,,,,,,,,,,
Wavelength (nm),Absorbance (AU),Reference Signal (unitless),Sample Signal (unitless)
901.81429527209,0.200380764885679,87290,55028
905.716563509274,0.200134417412918,94779,59783
909.614561387966,0.197754212243364,102061,64730
913.508288908168,0.200129404917585,111494,70327
917.397746069878,0.198535633378235,122490,77547
921.282932873098,0.199648262464315,136371,86114
925.163849317827,0.198400374671476,152991,96887
929.040495404065,0.19895636187272,171847,108689
932.912871131812,0.199359230941528,191502,121008
938.069395988934,0.198111775289787,215311,136444
941.931807546869,0.198962621660363,231859,146643
945.789948746314,0.197926242892893,245534,155663
949.643819587268,0.198156589229019,258225,163622
953.493420069731,0.198340699281498,269658,170794
957.338750193702,0.198949548032164,281050,177760
961.179809959184,0.198608462074673,291866,184746
965.016599366174,0.199229325494058,302257,191050
968.849118414673,0.199847534852508,312455,197215
973.952501032798,0.199507560503094,325613,205681
977.775055911486,0.200125110606433,335441,211588
981.593340431682,0.200170306371347,343960,216939
985.407354593388,0.201016158247972,352043,221605
989.217098396603,0.200965530177155,359377,226248
993.022571841327,0.201324010415693,366109,230296
996.823774927561,0.200978452633607,371522,233887
1000.6207076553,0.200560644157429,376846,237467
1004.41337002455,0.200325149165114,381235,240363
1008.20176203532,0.200351044829673,385082,242774
1013.24630860312,0.199853406687186,388369,245127
1017.02473644407,0.200252041792421,390765,246413
1020.79889392653,0.199448387776465,392314,247848
1024.5687810505,0.199257468634028,393507,248711
1028.33439781597,0.19968768556219,394190,248896
1032.09574422296,0.199256376639064,394093,249082
1035.85282027145,0.199149002133722,394758,249564
1039.60562596146,0.198966881503422,394349,249410
1043.35416129297,0.19919295129964,394741,249528
1048.34556562178,0.198846585208201,393911,249202
1052.08413678348,0.198893973082639,393837,249128
1055.81843758669,0.198859315288179,393393,248867
1059.54846803141,0.199430205918327,393548,248638
1063.27422811764,0.199324482116763,393669,248775
1066.99571784538,0.19885848991679,393495,248932
1070.71293721462,0.198848526703679,394319,249459
1074.42588622538,0.198566590887368,395112,250123
1078.13456487764,0.198724206622862,396281,250772
1081.83897317142,0.198386319062595,398005,252059
1086.77154144991,0.198164905770319,400130,253534
1090.46598557387,0.199136684265797,402771,254637
1094.15615933934,0.198716827157607,405242,256447
1097.84206274632,0.198292847525081,407273,257984
1101.52369579481,0.198490930230053,410387,259838
1105.20105848481,0.198408747437556,413856,262084
1108.87415081632,0.198837608756285,417344,264032
1112.54297278934,0.198827624342798,420581,266086
1116.20752440387,0.199500711085783,424800,268339
1121.08695044336,0.200489842838427,430297,271193
1124.74153788807,0.200226609809728,434397,273943
1128.3918549743,0.201073384556492,439336,276518
1132.03790170203,0.201668342369577,444156,279169
1135.67967807127,0.201682540671665,448705,282019
1139.31718408202,0.202237384114909,453795,284854
1142.95041973428,0.20241339638103,458945,287970
1146.57938502805,0.203698288132986,464456,290567
1150.20407996333,0.203930437568198,469603,293630
1153.82450454012,0.205197374112948,475681,296564
1158.6450945293,0.205743317564051,483638,301146
1162.25555493627,0.206537559045226,489659,304338
1165.86174498476,0.207431368523375,496172,307752
1169.46366467475,0.207367430568119,503058,312069
1173.06131400625,0.208102765541246,509948,315808
1176.65469297927,0.208722665882008,517240,319867
1180.24380159379,0.208888720827783,524012,323931
1183.82863984982,0.209381827509958,532470,328786
1187.40920774736,0.209662646284154,540431,333486
1192.17665549754,0.210422604630408,550962,339390
1195.74725922527,0.210386230224067,559261,344531
1199.3135925945,0.210819438279713,568015,349575
1202.87565560525,0.210717535282928,576230,354714
1206.43344825751,0.210988442923526,584444,359546
1209.98697055127,0.210531861818072,593636,365585
1213.53622248654,0.210553541704847,602368,370944
1217.08120406333,0.210351675062563,610913,376381
1220.62191528162,0.209976175355801,619298,381877
1224.15835614142,0.209568628389483,627659,387396
1228.86696784128,0.209339048103679,638504,394298
1232.39344453127,0.209474982558138,646335,399009
1235.91565086277,0.209131737076778,654194,404180
1239.43358683578,0.20927623698945,660961,408225
1242.94725245029,0.208924495905172,667816,412793
1246.45664770632,0.208397204753867,674508,417436
1249.96177260386,0.208513201506675,680274,420892
1253.4626271429,0.208561419423002,685978,424374
1256.95921132345,0.208464898490045,691435,427845
1261.61468078432,0.208307173093535,700675,433720
1265.10130079506,0.208223374977032,707918,438288
1268.58365044731,0.208511727166314,714572,442114
1272.06172974107,0.208216621367478,720796,446268
1275.53553867634,0.20849937270088,726704,449633
1279.00507725312,0.208265580367489,731839,453054
1282.4703454714,0.208307111352113,737434,456474
1285.9313433312,0.208301788748741,741937,459267
1289.38807083251,0.208292204999467,745704,461609
1292.84052797532,0.208414145436176,749470,463810
1297.43716138587,0.208541205807296,754359,466699
1300.87965435887,0.208376410719998,757558,468856
1304.31787697338,0.208765679045432,760068,469988
1307.7518292294,0.209026436923917,762510,471215
1311.18151112693,0.209252425452051,764364,472115
1314.60692266597,0.209539120111634,766437,473083
1318.02806384652,0.209978288614602,767240,473100
1321.44493466858,0.21093800254777,768479,472818
1324.85753513215,0.211361965285502,769389,472916
1329.4010263037,0.212267815874971,769507,472003
1332.80366259745,0.213267854366489,769709,471041
1336.20202853272,0.214125432472064,769228,469818
1339.59612410949,0.21529588060683,768623,468185
1342.98594932777,0.216751369265422,767782,466108
1346.37150418756,0.218405266914936,765746,463105
1349.75278868886,0.21959296993478,763494,460482
1353.12980283167,0.221350649835752,761025,457139
1356.50254661599,0.222409082357205,758503,454515
1359.87102004182,0.224154563399875,755581,450948
1364.35567516305,0.225803624013753,752520,447419
1367.71418441907,0.227070134063394,750779,445084
1371.06842331659,0.228760436600105,747873,441639
1374.41839185563,0.230010776441833,743034,437520
1377.76409003617,0.232374593675543,737194,431725
1381.10551785823,0.234532870665488,730675,425786
1384.44267532179,0.237124859410972,724848,419877
1387.77556242686,0.240627051630411,719243,413284
1391.10417917344,0.244649309022526,714114,406554
1395.53569205567,0.25147791154476,708437,397030
1398.85434463244,0.257499883944965,704629,389458
1402.16872685072,0.264709286955571,701115,381136
1405.47883871051,0.272436750874349,698180,372847
1408.7846802118,0.280791125799434,695383,364278
1412.08625135461,0.288987814946847,692698,356087
1415.38355213892,0.2970454509375,690357,348360
1418.67658256475,0.304159518698335,688292,341675
1421.96534263208,0.311040933167686,686915,335631
1425.24983234092,0.316822502685088,685375,330450
1429.62250917284,0.323626858368921,683481,324414
1432.89703471187,0.327865363191306,682589,320844
1436.16728989241,0.33126760086151,681276,317728
1439.43327471445,0.334131498242308,680327,315200
1442.69498917801,0.336104249022356,679437,313361
1445.95243328308,0.337375740443852,678513,312020
1449.20560702965,0.33943283493633,677463,310065
1452.45451041774,0.339175926733731,675405,309306
1455.69914344733,0.340125472332904,673174,307611
1460.01867804025,0.339684561939255,670296,306607
1463.25334690003,0.339620551771692,668160,305675
1466.48374540132,0.338504347846581,664716,304882
1469.70987354412,0.33771489418887,661746,304072
1472.93173132843,0.33603387001782,658537,303771
1476.14931875425,0.33429019638923,655216,303455
1479.36263582158,0.332143679281043,651558,303256
1482.57168253042,0.33080055627851,647447,302276
1485.77645888076,0.328807781939036,643515,301822
1488.97696487262,0.327182241255371,639539,301082
1493.23766341522,0.324076986616301,632960,300123
1496.42820523726,0.322947403006541,628251,298666
1499.61447670082,0.321158237384817,623303,297537
1502.79647780588,0.319596241003966,618001,296069
1505.97420855245,0.317680468435911,612174,294574
1509.14766894053,0.316533958293888,606396,292565
1512.31685897012,0.314949756602818,600636,290845
1515.48177864122,0.313874960881618,593614,288157
1518.64242795382,0.312325046550336,587710,286311
1522.84998425743,0.310668783557066,578688,282993
1526.00066940022,0.309129405044954,571962,280697
1529.14708418453,0.308286227533967,564961,277800
1532.28922861034,0.307247347080166,557127,274604
1535.42710267766,0.3071058581167,549350,270859
1538.5607063865,0.305489720884234,541387,267928
1541.69003973684,0.304634758598834,532669,264133
1544.81510272869,0.304261649243835,524176,260145
1547.93589536205,0.303461111791761,515387,256255
1551.05241763692,0.302805923688925,506999,252465
1555.2011378902,0.302450211436333,495279,246831
1558.30769599526,0.301752429126705,486739,242965
1561.40998374183,0.301288199071451,477826,238771
1564.5080011299,0.300489328580514,468810,234697
1567.60174815948,0.300128575415652,459150,230052
1570.69122483058,0.300025150460271,449832,225437
1573.77643114318,0.299197470686306,440113,220987
1576.85736709729,0.299065343685969,430743,216348
1579.93403269291,0.298719218167515,420998,211622
1584.0296107072,0.297795999129467,408330,205691
1587.09631213301,0.297019781089221,398852,201276
1590.15874320033,0.296517415731488,389573,196821
1593.21690390916,0.296009772833615,379648,192031
1596.27079425949,0.29487220992561,370943,188120
1599.32041425134,0.293577919166049,361759,184010
1602.36576388469,0.293341633105539,352673,179486
1605.40684315956,0.292925543472971,343537,175004
1608.44365207593,0.292611117954394,334316,170430
1611.47619063381,0.291535572389351,325394,166293
1615.51293259778,0.291418296253083,313158,160083
1618.53550698585,0.290356328234274,304724,156153
1621.55381101543,0.289978228588659,295761,151692
1624.56784468652,0.289731040419304,287311,147442
1627.57760799912,0.288932799476416,278478,143172
1630.58310095323,0.289909445380593,270081,138543
1633.58432354884,0.289162334282178,261451,134347
1636.58127578597,0.289784911228582,253251,129947
1639.5739576646,0.290276770099738,244961,125551
1643.55755738958,0.292343099113751,233769,119246
1646.5402750984,0.294748262973419,225954,114623
1649.51872244873,0.296641534374791,218097,110156
1652.49289944057,0.297642806225268,209712,105677
1655.46280607392,0.300860406820673,202269,101174
1658.42844234878,0.300933811116118,194133,97088
1661.38980826515,0.301519877820009,186276,93033
1664.34690382303,0.301929308191127,177898,88765
1667.29972902242,0.304308250484116,169015,83872
1670.24828386331,0.301881832122571,159224,79456
1674.17304753796,0.300972770213856,144185,72102
1677.11163820905,0.301847757339625,130768,65261
1680.04595852164,0.300477172497299,116979,58564
1682.97600847574,0.299108037133705,102812,51634
1685.90178807136,0.301078771423183,89044,44517
1688.82329730848,0.304515003167649,75947,37670
1691.74053618711,0.30497564483098,64794,32104
1694.65350470725,0.304192464399554,54580,27092
1697.56220286889,0.304369295821148,46478,23061
1701.43382430455,0.300166378050482,37176,18625
