***Scan Config Information***,,,,,,,***Reference Scan Information***,,,,,,,,
Scan Config Name:,herbario,,,,,,Scan Config Name:,Local New Reference,,,,,,,
Scan Config Type:,Slew,Num Section:,1,,,,Scan Config Type:,Slew,Num Section:,1,,,,,
Section Config Type:,Column,,,,,,Section Config Type:,Column,,,,,,,
Start Wavelength (nm):,900,,,,,,Start Wavelength (nm):,900,,,,,,,
End Wavelength (nm):,1700,,,,,,End Wavelength (nm):,1700,,,,,,,
Pattern Width (nm):,7.03,,,,,,Pattern Width (nm):,7.03,,,,,,,
Exposure (ms):,0.635,,,,,,Exposure (ms):,0.635,,,,,,,
Digital Resolution:,228,,,,,,Digital Resolution:,228,,,,,,,
Num Repeats:,20,,,,,,Num Repeats:,20,,,,,,,
PGA Gain:,64,(FixedPGA),,,,,PGA Gain:,64,(AutoPGA),,,,,,
System Temp (C):,41.35,,,,,,System Temp (C):,41.25,,,,,,,
Humidity (%):,18.78,,,,,,Humidity (%):,18.87,,,,,,,
Lamp Indicator:,1121,,,,,,Lamp Indicator:,1123,,,,,,,
Data Date-Time:,2023/11/10T18:27:35,,,,,,Data Date-Time:,2023/11/10T18:26:48,,,,,,,
Total Measurement Time in sec:,6.7819033,,,,,,,,,,,,,,
,,,,,,,,,,,,,,,
***General Information***,,,,,,,***Calibration Coefficients***,,,,,,,,
Model Name:,NIR-S-G1,,,,,,Shift Vector Coefficients:,-5.08535400046452,0.0413457073195706,-8.39863846568903E-05,,,,,
Serial Number:,B07R011,(95UB122GC0AB07R011),,,,,Pixel to Wavelength Coefficients:,1794.37724621797,-0.920219689099738,-0.000237242138379873,,,,,
GUI Version:,3.9.4,Revision:,526,,,,Versions (Cal/Ref/Cfg):,1,3,1,,,,,
TIVA Version:,2.4.7,,,,,,***Lamp Usage ***,,,,,,,,
DLPC Version:,2.3.1,,,,,,Total Time(hh:mm:ss):,1hr 34min 1sec ,,,,,,,
UUID:,DE:67:0C:88:67:2B:47:21,,,,,,***Device/Error/Activation Status***,,,,,,,,
Main Board Version:,D,,,,,,Device Status:,0x00000001,Activation Status:,Activated,,,,,
Detector Board Version:,B,,,,,,Error status:,0x00000000,Error Code:,0x00000000000000000000000000000000,,,,,
,,,,,,,,,Error Details:,Not found,,,,,
***Scan Data***,,,,,,,,,,,,,,,
Wavelength (nm),Absorbance (AU),Reference Signal (unitless),Sample Signal (unitless)
901.81429527209,0.188435545913185,86891,56304
905.716563509274,0.190526160756545,94490,60934
909.614561387966,0.19086330360134,102222,65869
913.508288908168,0.190817610812937,111292,71721
917.397746069878,0.188094043958302,121978,79102
921.282932873098,0.185568836263967,135478,88369
925.163849317827,0.185840910399696,151649,98855
929.040495404065,0.185914732857365,170240,110955
932.912871131812,0.185106445549874,189834,123956
938.069395988934,0.183063315142272,213807,140268
941.931807546869,0.183155249302204,230013,150868
945.789948746314,0.182998128609896,244710,160566
949.643819587268,0.181948035994562,256995,169035
953.493420069731,0.18191283104185,268715,176758
957.338750193702,0.181180389240448,280349,184722
961.179809959184,0.182030506123893,291330,191582
965.016599366174,0.181282484406045,301294,198476
968.849118414673,0.180785539355555,311559,205473
973.952501032798,0.180065765954835,324702,214496
977.775055911486,0.180013148693133,334489,220988
981.593340431682,0.179615027750976,343029,226838
985.407354593388,0.179215648595084,350987,232314
989.217098396603,0.178599921824236,358522,237638
993.022571841327,0.178974579755281,365039,241749
996.823774927561,0.178256881025875,370317,245650
1000.6207076553,0.17780409371293,375872,249595
1004.41337002455,0.177873642682611,380645,252724
1008.20176203532,0.177467594079777,384152,255291
1013.24630860312,0.177036016942019,387479,257758
1017.02473644407,0.176727653400963,389953,259588
1020.79889392653,0.176489913882048,391819,260973
1024.5687810505,0.176114467668453,392976,261970
1028.33439781597,0.175790482173736,393329,262401
1032.09574422296,0.175469965268456,393614,262785
1035.85282027145,0.175051048073614,394071,263344
1039.60562596146,0.174827374211591,393729,263251
1043.35416129297,0.174570750935277,393900,263521
1048.34556562178,0.174580167917165,393490,263241
1052.08413678348,0.173982178758756,393168,263388
1055.81843758669,0.173969771296592,392803,263151
1059.54846803141,0.173264324987491,392620,263456
1063.27422811764,0.173231751461073,392750,263563
1066.99571784538,0.17351910878475,392834,263445
1070.71293721462,0.173785412316133,393536,263754
1074.42588622538,0.172740727242612,394204,264838
1078.13456487764,0.17243688596946,395621,265976
1081.83897317142,0.172826749858293,397276,266849
1086.77154144991,0.172561701721811,399499,268506
1090.46598557387,0.17228154182604,401610,270099
1094.15615933934,0.172402958762474,404395,271896
1097.84206274632,0.172473101213411,406650,273368
1101.52369579481,0.172389900726688,409505,275340
1105.20105848481,0.172717826866025,413062,277522
1108.87415081632,0.172432332388914,416579,280069
1112.54297278934,0.172309033737191,419976,282433
1116.20752440387,0.172172047877321,423655,284997
1121.08695044336,0.172807267467451,429362,288414
1124.74153788807,0.173591826203562,433664,290778
1128.3918549743,0.173080144642626,438236,294190
1132.03790170203,0.17375108619633,443273,297112
1135.67967807127,0.173868654013136,447976,300183
1139.31718408202,0.174138239107392,452728,303179
1142.95041973428,0.174843609806844,458298,306411
1146.57938502805,0.174869520685457,463417,309815
1150.20407996333,0.175511742959904,468817,312962
1153.82450454012,0.175476600685902,474474,316764
1158.6450945293,0.176565346539095,482571,321363
1162.25555493627,0.176416361581533,488443,325385
1165.86174498476,0.177081437475575,495088,329307
1169.46366467475,0.177266863236565,501800,333629
1173.06131400625,0.177252884761166,508579,338147
1176.65469297927,0.177491620555158,515802,342761
1180.24380159379,0.177836081601117,523127,347353
1183.82863984982,0.178285422984677,530905,352153
1187.40920774736,0.178093663476817,538576,357399
1192.17665549754,0.178740607969547,549510,364112
1195.74725922527,0.178063731046368,557433,369938
1199.3135925945,0.178267110587818,566177,375565
1202.87565560525,0.178346175257549,574181,380805
1206.43344825751,0.17856423017874,582771,386308
1209.98697055127,0.177870715292068,591592,392782
1213.53622248654,0.177905689228024,600480,398651
1217.08120406333,0.177338871795669,608831,404723
1220.62191528162,0.176878932025376,617260,410761
1224.15835614142,0.176554418405481,625765,416732
1228.86696784128,0.176154710656627,636585,424328
1232.39344453127,0.175504740781032,644137,430005
1235.91565086277,0.175366546198433,651755,435229
1239.43358683578,0.175138073180196,659020,440312
1242.94725245029,0.1746106301577,665575,445232
1246.45664770632,0.17446874573987,672462,449986
1249.96177260386,0.174397360620588,677847,453664
1253.4626271429,0.174059282976482,683617,457882
1256.95921132345,0.17429175144252,689528,461594
1261.61468078432,0.174040257991103,698597,467936
1265.10130079506,0.173759572334075,705695,472996
1268.58365044731,0.17335141727375,712236,477829
1272.06172974107,0.173274246866509,718710,482258
1275.53553867634,0.173413069422822,724642,486083
1279.00507725312,0.173319029089767,729733,489604
1282.4703454714,0.173181901123484,734877,493211
1285.9313433312,0.173230234783368,739693,496388
1289.38807083251,0.172771028970745,743575,499521
1292.84052797532,0.173008428116009,747431,501837
1297.43716138587,0.172510734335912,751944,505446
1300.87965435887,0.172721990456516,755181,507375
1304.31787697338,0.172873942588536,757768,508935
1307.7518292294,0.172967666474569,760155,510428
1311.18151112693,0.172926338408676,762498,512050
1314.60692266597,0.172832542630752,764038,513195
1318.02806384652,0.173233111280689,765202,513503
1321.44493466858,0.173465435409986,766263,513940
1324.85753513215,0.173583217238755,766875,514211
1329.4010263037,0.174368325231699,767783,513890
1332.80366259745,0.174595900356452,767296,513295
1336.20202853272,0.175292914808624,767142,512369
1339.59612410949,0.176113911151835,766915,511250
1342.98594932777,0.176940875792895,765963,509644
1346.37150418756,0.17750640522715,764019,507689
1349.75278868886,0.178216796759041,761940,505480
1353.12980283167,0.179207238517668,759463,502689
1356.50254661599,0.180050029329602,757440,500378
1359.87102004182,0.180938586388244,754280,497272
1364.35567516305,0.181821787912152,751429,494386
1367.71418441907,0.182796178004702,749278,491866
1371.06842331659,0.183743424134045,746331,488864
1374.41839185563,0.184214551637915,741714,485313
1377.76409003617,0.186074258593233,735967,479495
1381.10551785823,0.186939665078318,729490,474329
1384.44267532179,0.188886632711704,723823,468539
1387.77556242686,0.1907588291952,717990,462764
1391.10417917344,0.193419617746371,713086,456796
1395.53569205567,0.197373263884067,707107,448861
1398.85434463244,0.201123616233824,703283,442595
1402.16872685072,0.205650166108325,699595,435709
1405.47883871051,0.210905952370359,696860,428785
1408.7846802118,0.216354346104867,694042,421727
1412.08625135461,0.221858380445239,691452,414862
1415.38355213892,0.227462437492668,688764,407951
1418.67658256475,0.232798884786807,687072,401979
1421.96534263208,0.237559957647962,685480,396675
1425.24983234092,0.241685501057403,683907,392023
1429.62250917284,0.246122541662815,681878,386887
1432.89703471187,0.249294127740367,681081,383623
1436.16728989241,0.251864795411572,679513,380481
1439.43327471445,0.253669112731989,678766,378487
1442.69498917801,0.254991245694745,677952,376884
1445.95243328308,0.255858095396237,676976,375591
1449.20560702965,0.256638924928768,676078,374419
1452.45451041774,0.256793793569494,673765,373005
1455.69914344733,0.256639441612478,671877,372092
1460.01867804025,0.256269909387754,668796,370701
1463.25334690003,0.256267664385025,666633,369504
1466.48374540132,0.255572605797837,663319,368256
1469.70987354412,0.254604491264062,660282,367388
1472.93173132843,0.253687021036467,657027,366350
1476.14931875425,0.252543941359535,654055,365654
1479.36263582158,0.251319307739636,650319,364592
1482.57168253042,0.249884192161882,646378,363582
1485.77645888076,0.248487629553043,642015,362291
1488.97696487262,0.247639727598893,638009,360734
1493.23766341522,0.245873267098718,631544,358534
1496.42820523726,0.244679591797673,627144,357016
1499.61447670082,0.243662757917594,622125,354989
1502.79647780588,0.242281287238082,616533,352919
1505.97420855245,0.241102756039208,611045,350728
1509.14766894053,0.239826077989749,605395,348508
1512.31685897012,0.238682752912182,599297,345907
1515.48177864122,0.237057976652821,592523,343279
1518.64242795382,0.23653619249024,586643,340281
1522.84998425743,0.235048491122414,577816,336311
1526.00066940022,0.234333118764245,570654,332690
1529.14708418453,0.233617192759924,564051,329383
1532.28922861034,0.232799956427786,556287,325461
1535.42710267766,0.232313429887253,548321,321160
1538.5607063865,0.231933484801662,540689,316967
1541.69003973684,0.230797004537946,531972,312674
1544.81510272869,0.230299192763775,523168,307852
1547.93589536205,0.22995747828686,515178,303389
1551.05241763692,0.229233211338263,506279,298646
1555.2011378902,0.228690134880785,494558,292097
1558.30769599526,0.228397443553145,486264,287392
1561.40998374183,0.228349948784304,477361,282161
1564.5080011299,0.227821209541048,468176,277069
1567.60174815948,0.227336863236133,458749,271793
1570.69122483058,0.226737310929093,449171,266486
1573.77643114318,0.226353892708498,439541,261003
1576.85736709729,0.225969050195251,430113,255631
1579.93403269291,0.225562616237539,420472,250135
1584.0296107072,0.225004811791869,407692,242844
1587.09631213301,0.224094877257326,398174,237672
1590.15874320033,0.2240661880073,389502,232511
1593.21690390916,0.22335311258531,379514,226921
1596.27079425949,0.222850250031942,370759,221943
1599.32041425134,0.221633363095708,361509,217013
1602.36576388469,0.221160430018842,352421,211788
1605.40684315956,0.220155369891751,342995,206601
1608.44365207593,0.22020103899431,334105,201225
1611.47619063381,0.219188570790364,325028,196215
1615.51293259778,0.218992993327165,313260,189196
1618.53550698585,0.218564210941466,304591,184142
1621.55381101543,0.21753232305631,295807,179257
1624.56784468652,0.21758254254217,287218,174032
1627.57760799912,0.216662795397976,278539,169131
1630.58310095323,0.217945059469221,269979,163450
1633.58432354884,0.216882557274966,261636,158787
1636.58127578597,0.216544076327799,253200,153787
1639.5739576646,0.216930109447513,245011,148681
1643.55755738958,0.218661954286699,234311,141622
1646.5402750984,0.218785980350889,226219,136692
1649.51872244873,0.219288018209082,217855,131486
1652.49289944057,0.220412891217706,210066,126457
1655.46280607392,0.221190434372129,202596,121742
1658.42844234878,0.221871049718128,194755,116847
1661.38980826515,0.223131775041168,186898,111808
1664.34690382303,0.223382393478802,178812,106909
1667.29972902242,0.2250628746034,170069,101289
1670.24828386331,0.224270148699704,161332,96261
1674.17304753796,0.22492756632365,146750,87428
1677.11163820905,0.224381388670207,134316,80121
1680.04595852164,0.22581751400733,121105,72002
1682.97600847574,0.226774581213533,107081,63524
1685.90178807136,0.227759029302821,93563,55379
1688.82329730848,0.227326617898171,80288,47569
1691.74053618711,0.229106609654302,68485,40410
1694.65350470725,0.226914547463668,57689,34212
1697.56220286889,0.226058775588413,49203,29237
1701.43382430455,0.225735038433656,39475,23474
