***Scan Config Information***,,,,,,,***Reference Scan Information***,,,,,,,,
Scan Config Name:,herbario,,,,,,Scan Config Name:,Local New Reference,,,,,,,
Scan Config Type:,Slew,Num Section:,1,,,,Scan Config Type:,Slew,Num Section:,1,,,,,
Section Config Type:,Column,,,,,,Section Config Type:,Column,,,,,,,
Start Wavelength (nm):,900,,,,,,Start Wavelength (nm):,900,,,,,,,
End Wavelength (nm):,1700,,,,,,End Wavelength (nm):,1700,,,,,,,
Pattern Width (nm):,7.03,,,,,,Pattern Width (nm):,7.03,,,,,,,
Exposure (ms):,0.635,,,,,,Exposure (ms):,0.635,,,,,,,
Digital Resolution:,228,,,,,,Digital Resolution:,228,,,,,,,
Num Repeats:,20,,,,,,Num Repeats:,20,,,,,,,
PGA Gain:,64,(FixedPGA),,,,,PGA Gain:,64,(AutoPGA),,,,,,
System Temp (C):,39.11,,,,,,System Temp (C):,38.95,,,,,,,
Humidity (%):,29,,,,,,Humidity (%):,29.09,,,,,,,
Lamp Indicator:,1104,,,,,,Lamp Indicator:,1105,,,,,,,
Data Date-Time:,2023/11/10T13:27:45,,,,,,Data Date-Time:,2023/11/10T13:26:50,,,,,,,
Total Measurement Time in sec:,6.7924877,,,,,,,,,,,,,,
,,,,,,,,,,,,,,,
***General Information***,,,,,,,***Calibration Coefficients***,,,,,,,,
Model Name:,NIR-S-G1,,,,,,Shift Vector Coefficients:,-5.08535400046452,0.0413457073195706,-8.39863846568903E-05,,,,,
Serial Number:,B07R011,(95UB122GC0AB07R011),,,,,Pixel to Wavelength Coefficients:,1794.37724621797,-0.920219689099738,-0.000237242138379873,,,,,
GUI Version:,3.9.4,Revision:,526,,,,Versions (Cal/Ref/Cfg):,1,3,1,,,,,
TIVA Version:,2.4.7,,,,,,***Lamp Usage ***,,,,,,,,
DLPC Version:,2.3.1,,,,,,Total Time(hh:mm:ss):,51min 10sec ,,,,,,,
UUID:,DE:67:0C:88:67:2B:47:21,,,,,,***Device/Error/Activation Status***,,,,,,,,
Main Board Version:,D,,,,,,Device Status:,0x00000001,Activation Status:,Activated,,,,,
Detector Board Version:,B,,,,,,Error status:,0x00000000,Error Code:,0x00000000000000000000000000000000,,,,,
,,,,,,,,,Error Details:,Not found,,,,,
***Scan Data***,,,,,,,,,,,,,,,
Wavelength (nm),Absorbance (AU),Reference Signal (unitless),Sample Signal (unitless)
901.81429527209,0.160514769193006,87055,60156
905.716563509274,0.15870918308647,94440,65531
909.614561387966,0.160429232806277,102175,70618
913.508288908168,0.158696531321406,111438,77328
917.397746069878,0.157813033570678,122530,85198
921.282932873098,0.157857938250833,136470,94881
925.163849317827,0.156959375683757,153250,106768
929.040495404065,0.157222173428661,172209,119904
932.912871131812,0.156953955510763,191840,133655
938.069395988934,0.155711426956598,215268,150407
941.931807546869,0.156783819820621,231478,161334
945.789948746314,0.15611633077566,245421,171315
949.643819587268,0.155950846567099,257852,180061
953.493420069731,0.156457122348915,269489,187968
957.338750193702,0.156250610944324,280686,195871
961.179809959184,0.156225995421557,291387,203350
965.016599366174,0.15633601283471,301481,210341
968.849118414673,0.156149940655638,311607,217499
973.952501032798,0.15630655776336,324826,226644
977.775055911486,0.156770364324986,334704,233287
981.593340431682,0.156716923829732,343065,239144
985.407354593388,0.156328718249346,350888,244816
989.217098396603,0.156813211783322,358741,250016
993.022571841327,0.15660321179544,364888,254423
996.823774927561,0.156394743993423,370282,258308
1000.6207076553,0.156043647344416,376000,262509
1004.41337002455,0.155857720074198,380359,265666
1008.20176203532,0.155609855027139,384014,268372
1013.24630860312,0.154969276808617,387120,270942
1017.02473644407,0.155009910305137,389714,272732
1020.79889392653,0.154394371536457,391271,274210
1024.5687810505,0.154563623640132,392634,275058
1028.33439781597,0.15481313038141,393181,275283
1032.09574422296,0.154193203209972,393068,275597
1035.85282027145,0.154133707025891,393586,275998
1039.60562596146,0.153539501197375,393458,276286
1043.35416129297,0.153178723133248,393238,276361
1048.34556562178,0.152896236328906,392924,276320
1052.08413678348,0.152826409705783,392885,276337
1055.81843758669,0.153150045449754,392549,275895
1059.54846803141,0.152943389525801,392513,276001
1063.27422811764,0.152997188047724,392509,275964
1066.99571784538,0.152463129999631,392467,276274
1070.71293721462,0.15289566761367,393306,276589
1074.42588622538,0.152541700723583,394270,277493
1078.13456487764,0.152168687293342,395415,278538
1081.83897317142,0.152804204669943,397302,279458
1086.77154144991,0.152260192036386,399227,281164
1090.46598557387,0.152204767679636,401432,282753
1094.15615933934,0.152370404465342,404589,284868
1097.84206274632,0.152230886566065,406620,286390
1101.52369579481,0.152350316672981,409710,288487
1105.20105848481,0.152602415366307,413023,290651
1108.87415081632,0.152563963188988,416560,293166
1112.54297278934,0.152925455461164,419980,295327
1116.20752440387,0.152712030412042,423691,298083
1121.08695044336,0.15380045534395,429495,301410
1124.74153788807,0.153791753160965,433603,304299
1128.3918549743,0.154242864406348,438417,307358
1132.03790170203,0.154551763004012,443084,310409
1135.67967807127,0.154958337697517,447921,313504
1139.31718408202,0.155617698244184,452943,316538
1142.95041973428,0.155788184550485,458174,320068
1146.57938502805,0.156172791072758,463394,323428
1150.20407996333,0.156680702171362,468591,326673
1153.82450454012,0.157501928073052,474518,330180
1158.6450945293,0.158695855726447,482573,334863
1162.25555493627,0.159156944525759,488810,338831
1165.86174498476,0.160088588987636,495407,342668
1169.46366467475,0.160483275411817,502100,346982
1173.06131400625,0.160703502765842,509000,351572
1176.65469297927,0.160606312651997,516038,356513
1180.24380159379,0.161070709160157,522944,360898
1183.82863984982,0.161889368393241,531352,366010
1187.40920774736,0.162024149706145,539215,371311
1192.17665549754,0.162749554977628,549906,378041
1195.74725922527,0.162992038097354,557924,383339
1199.3135925945,0.16364432242425,566711,388792
1202.87565560525,0.163197444920237,574878,394801
1206.43344825751,0.163750584249128,583249,400040
1209.98697055127,0.163422171219314,592119,406431
1213.53622248654,0.163903103591945,601122,412154
1217.08120406333,0.163761533402882,609836,418265
1220.62191528162,0.163203298353796,617938,424367
1224.15835614142,0.162984392141673,626279,430312
1228.86696784128,0.162718869769215,637112,438023
1232.39344453127,0.162331841823062,645056,443880
1235.91565086277,0.162120287247191,652568,449268
1239.43358683578,0.162557922884233,659779,453775
1242.94725245029,0.162122872614494,666458,458828
1246.45664770632,0.161926709295791,673126,463628
1249.96177260386,0.161844400940785,678754,467593
1253.4626271429,0.161989700070535,684242,471216
1256.95921132345,0.162043124755524,689974,475105
1261.61468078432,0.16195101709406,699457,481737
1265.10130079506,0.161650046930506,706616,487005
1268.58365044731,0.161833493394687,713133,491289
1272.06172974107,0.161938311492168,719830,495783
1275.53553867634,0.16152116256023,725321,500045
1279.00507725312,0.16150561856706,730376,503548
1282.4703454714,0.161521845440993,735937,507363
1285.9313433312,0.161382549565553,740389,510596
1289.38807083251,0.161534250380214,744525,513269
1292.84052797532,0.161435783821146,747786,515634
1297.43716138587,0.161581727460785,752948,519019
1300.87965435887,0.161493307672693,756019,521242
1304.31787697338,0.161713154222508,758535,522712
1307.7518292294,0.161991205462471,761045,524106
1311.18151112693,0.162181402102196,762972,525203
1314.60692266597,0.162370777676796,764684,526152
1318.02806384652,0.162549178318293,765667,526612
1321.44493466858,0.163129587929519,766937,526781
1324.85753513215,0.163641099302526,767749,526718
1329.4010263037,0.164531991740652,768252,525983
1332.80366259745,0.165327401767416,768080,524903
1336.20202853272,0.166233667373288,767614,523491
1339.59612410949,0.167358027494314,767284,521913
1342.98594932777,0.168503284849709,766135,519759
1346.37150418756,0.169956508639088,764198,516713
1349.75278868886,0.171473033170709,762165,513542
1353.12980283167,0.172478508496377,759335,510452
1356.50254661599,0.173829606834366,756814,507177
1359.87102004182,0.175351392062193,753933,503479
1364.35567516305,0.177004165232213,751249,499781
1367.71418441907,0.178592866363158,749268,496643
1371.06842331659,0.179972845236046,746584,493294
1374.41839185563,0.181342857553663,741757,488561
1377.76409003617,0.182954950278257,735491,482639
1381.10551785823,0.184931175803654,729469,476514
1384.44267532179,0.187341391385614,723572,470046
1387.77556242686,0.19068307397694,717902,462788
1391.10417917344,0.194364667154662,712870,455665
1395.53569205567,0.200409180902065,707443,445946
1398.85434463244,0.206711077707759,703376,436995
1402.16872685072,0.212984745884469,699650,428446
1405.47883871051,0.221039555266539,697060,419016
1408.7846802118,0.229419356839591,694215,409331
1412.08625135461,0.237890247674794,691769,400010
1415.38355213892,0.246267017641099,689344,390993
1418.67658256475,0.253261610967024,687267,383587
1421.96534263208,0.260093997918454,685748,376765
1425.24983234092,0.266095170139917,684182,370746
1429.62250917284,0.272869946063802,682378,364045
1432.89703471187,0.27703489895074,681588,360153
1436.16728989241,0.281183314063255,680319,356065
1439.43327471445,0.284208210401599,679352,353091
1442.69498917801,0.286435481778413,678368,350776
1445.95243328308,0.28827354410434,677895,349051
1449.20560702965,0.289589740635232,676715,347389
1452.45451041774,0.290419996287538,674530,345606
1455.69914344733,0.290651194923111,672292,344276
1460.01867804025,0.290428725385118,669629,343088
1463.25334690003,0.289287181963489,666966,342623
1466.48374540132,0.288124298655688,664138,342085
1469.70987354412,0.287155216569374,660831,341142
1472.93173132843,0.285246060503662,657537,340937
1476.14931875425,0.283059225144008,654480,341065
1479.36263582158,0.280979430797829,650639,340691
1482.57168253042,0.279006761652483,646928,340290
1485.77645888076,0.276551968633664,642758,340013
1488.97696487262,0.274367684998233,638860,339655
1493.23766341522,0.27139011233309,632143,338396
1496.42820523726,0.269781761920028,627424,337116
1499.61447670082,0.268090638444721,622696,335881
1502.79647780588,0.266567092212034,617214,334094
1505.97420855245,0.263976184652084,611396,332925
1509.14766894053,0.262600441852605,605607,330819
1512.31685897012,0.260776277420364,599574,328902
1515.48177864122,0.258865545079935,592998,326729
1518.64242795382,0.257940236209567,586951,324087
1522.84998425743,0.256242671177379,577934,320358
1526.00066940022,0.254926417190353,571239,317608
1529.14708418453,0.25362599749303,564182,314625
1532.28922861034,0.253017606770962,556670,310871
1535.42710267766,0.252222616056815,548774,307023
1538.5607063865,0.250767392940429,540461,303387
1541.69003973684,0.250067552007813,532224,299245
1544.81510272869,0.249563962629749,523748,294821
1547.93589536205,0.249241543832877,515158,290201
1551.05241763692,0.247867822497158,506336,286135
1555.2011378902,0.246943703270174,494483,280032
1558.30769599526,0.246384713524323,486135,275659
1561.40998374183,0.245882625208347,476949,270763
1564.5080011299,0.245439705563101,468289,266118
1567.60174815948,0.245036060028241,458930,261042
1570.69122483058,0.244377383021503,449389,256003
1573.77643114318,0.244463498761743,439753,250464
1576.85736709729,0.242670634110758,429781,245797
1579.93403269291,0.243059486596606,420369,240199
1584.0296107072,0.242005129379419,407670,233509
1587.09631213301,0.241503383768871,398311,228412
1590.15874320033,0.240245415107499,388971,223703
1593.21690390916,0.239757507846019,379468,218483
1596.27079425949,0.238970138324279,370296,213589
1599.32041425134,0.23764625228861,361258,209012
1602.36576388469,0.236739392416208,352303,204257
1605.40684315956,0.236698769486441,343126,198955
1608.44365207593,0.23511878403689,333740,194218
1611.47619063381,0.234866528507857,324949,189212
1615.51293259778,0.233107580876212,312776,182863
1618.53550698585,0.232420284145282,303934,177975
1621.55381101543,0.233468390856229,295563,172656
1624.56784468652,0.231713418003772,286547,168067
1627.57760799912,0.231751015962611,278285,163207
1630.58310095323,0.230958269018897,269339,158249
1633.58432354884,0.232029056746354,261304,153150
1636.58127578597,0.231997540410996,252509,148006
1639.5739576646,0.232821219568259,244276,142909
1643.55755738958,0.234174127859603,233394,136118
1646.5402750984,0.234682182243245,225235,131206
1649.51872244873,0.237883253261196,217440,125735
1652.49289944057,0.24004645751776,209377,120471
1655.46280607392,0.241000711338097,201503,115686
1658.42844234878,0.242600438428383,193425,110640
1661.38980826515,0.242251431546171,185339,106100
1664.34690382303,0.242296571320114,176735,101164
1667.29972902242,0.240757167974901,167308,96108
1670.24828386331,0.241667409057051,157466,90265
1674.17304753796,0.240105135161417,141194,81229
1677.11163820905,0.239853633596185,127661,73486
1680.04595852164,0.239801793198483,113041,65078
1682.97600847574,0.23740635121672,99066,57348
1685.90178807136,0.238013618690794,85293,49306
1688.82329730848,0.239128434716575,72654,41892
1691.74053618711,0.237756660529279,61483,35563
1694.65350470725,0.236447217560292,52316,30352
1697.56220286889,0.239649824491542,44049,25368
1701.43382430455,0.240839917011179,35572,20430
