***Scan Config Information***,,,,,,,***Reference Scan Information***,,,,,,,,
Scan Config Name:,herbario,,,,,,Scan Config Name:,Local New Reference,,,,,,,
Scan Config Type:,Slew,Num Section:,1,,,,Scan Config Type:,Slew,Num Section:,1,,,,,
Section Config Type:,Column,,,,,,Section Config Type:,Column,,,,,,,
Start Wavelength (nm):,900,,,,,,Start Wavelength (nm):,900,,,,,,,
End Wavelength (nm):,1700,,,,,,End Wavelength (nm):,1700,,,,,,,
Pattern Width (nm):,7.03,,,,,,Pattern Width (nm):,7.03,,,,,,,
Exposure (ms):,0.635,,,,,,Exposure (ms):,0.635,,,,,,,
Digital Resolution:,228,,,,,,Digital Resolution:,228,,,,,,,
Num Repeats:,20,,,,,,Num Repeats:,20,,,,,,,
PGA Gain:,64,(FixedPGA),,,,,PGA Gain:,64,(AutoPGA),,,,,,
System Temp (C):,39.79,,,,,,System Temp (C):,39.47,,,,,,,
Humidity (%):,31.52,,,,,,Humidity (%):,32.29,,,,,,,
Lamp Indicator:,1105,,,,,,Lamp Indicator:,1113,,,,,,,
Data Date-Time:,2023/11/13T09:44:14,,,,,,Data Date-Time:,2023/11/13T09:41:04,,,,,,,
Total Measurement Time in sec:,6.786361,,,,,,,,,,,,,,
,,,,,,,,,,,,,,,
***General Information***,,,,,,,***Calibration Coefficients***,,,,,,,,
Model Name:,NIR-S-G1,,,,,,Shift Vector Coefficients:,-5.08535400046452,0.0413457073195706,-8.39863846568903E-05,,,,,
Serial Number:,B07R011,(95UB122GC0AB07R011),,,,,Pixel to Wavelength Coefficients:,1794.37724621797,-0.920219689099738,-0.000237242138379873,,,,,
GUI Version:,3.9.4,Revision:,526,,,,Versions (Cal/Ref/Cfg):,1,3,1,,,,,
TIVA Version:,2.4.7,,,,,,***Lamp Usage ***,,,,,,,,
DLPC Version:,2.3.1,,,,,,Total Time(hh:mm:ss):,1hr 47min 51sec ,,,,,,,
UUID:,DE:67:0C:88:67:2B:47:21,,,,,,***Device/Error/Activation Status***,,,,,,,,
Main Board Version:,D,,,,,,Device Status:,0x00000001,Activation Status:,Activated,,,,,
Detector Board Version:,B,,,,,,Error status:,0x00000000,Error Code:,0x00000000000000000000000000000000,,,,,
,,,,,,,,,Error Details:,Not found,,,,,
***Scan Data***,,,,,,,,,,,,,,,
Wavelength (nm),Absorbance (AU),Reference Signal (unitless),Sample Signal (unitless)
901.81429527209,0.564718647168568,86149,23471
905.716563509274,0.55637852703353,93692,26021
909.614561387966,0.547970620372891,100774,28535
913.508288908168,0.548399814118134,110079,31139
917.397746069878,0.542563049978067,120845,34647
921.282932873098,0.538431737180319,134429,38910
925.163849317827,0.534453366648882,151080,44132
929.040495404065,0.526491468162872,169763,50507
932.912871131812,0.524227983668024,189023,56531
938.069395988934,0.516670625241524,212747,64743
941.931807546869,0.511331651155464,228727,70467
945.789948746314,0.505785851482211,242502,75671
949.643819587268,0.500205561694652,254725,80513
953.493420069731,0.495545054847547,266401,85112
957.338750193702,0.492185663474694,277716,89416
961.179809959184,0.48648684015224,288129,93994
965.016599366174,0.4803139071553,298318,98711
968.849118414673,0.475438017037068,307984,103060
973.952501032798,0.469687840793766,321200,108915
977.775055911486,0.465037093763716,330917,113418
981.593340431682,0.461578797238883,339555,117309
985.407354593388,0.455290205151519,347198,121699
989.217098396603,0.451812940994252,354748,125345
993.022571841327,0.447710658534816,360945,128745
996.823774927561,0.443062232979203,366164,132012
1000.6207076553,0.438649775570135,371732,135388
1004.41337002455,0.434092175020913,376323,138506
1008.20176203532,0.430662012792268,379557,140804
1013.24630860312,0.424831989742384,382951,143983
1017.02473644407,0.420992503636214,385280,146145
1020.79889392653,0.416719473476234,386888,148206
1024.5687810505,0.413057321575903,388234,149981
1028.33439781597,0.409735890036242,388685,151308
1032.09574422296,0.404995121253154,388612,152940
1035.85282027145,0.402451580655039,389230,154083
1039.60562596146,0.398353197076319,389085,155486
1043.35416129297,0.395339760011685,389076,156565
1048.34556562178,0.39030058673863,388481,158150
1052.08413678348,0.38790709824722,388288,158945
1055.81843758669,0.384500906914758,388088,160114
1059.54846803141,0.382089084628982,387896,160926
1063.27422811764,0.377707200635133,387796,162516
1066.99571784538,0.37609957256515,388208,163292
1070.71293721462,0.372932436209302,388538,164627
1074.42588622538,0.370851543148209,389288,165737
1078.13456487764,0.368213751783969,390477,167256
1081.83897317142,0.364679853888619,392414,169459
1086.77154144991,0.362033743052668,394530,171414
1090.46598557387,0.360495044357255,396779,173003
1094.15615933934,0.358275011854314,399105,174909
1097.84206274632,0.355960961732569,401503,176900
1101.52369579481,0.353352703267923,404430,179263
1105.20105848481,0.351971816422365,408015,181428
1108.87415081632,0.350308517246298,411216,183553
1112.54297278934,0.348519615655236,414472,185770
1116.20752440387,0.346964677782399,418115,188075
1121.08695044336,0.34516573793487,423810,191428
1124.74153788807,0.343708695978135,427898,193924
1128.3918549743,0.342536601823793,432365,196478
1132.03790170203,0.340972496554882,437222,199402
1135.67967807127,0.339742464081087,441773,202049
1139.31718408202,0.338768974064048,446685,204754
1142.95041973428,0.33780248216879,452035,207668
1146.57938502805,0.336599896183364,457321,210679
1150.20407996333,0.335981212846936,462464,213352
1153.82450454012,0.335400795573597,468334,216349
1158.6450945293,0.334631188492334,476399,220465
1162.25555493627,0.334000538343224,482250,223497
1165.86174498476,0.333013802056409,488331,226830
1169.46366467475,0.332482045715832,495242,230322
1173.06131400625,0.33178449292958,501875,233782
1176.65469297927,0.330877371733685,508705,237459
1180.24380159379,0.330018341913822,515803,241249
1183.82863984982,0.329386320267357,523930,245407
1187.40920774736,0.328568502304244,531549,249445
1192.17665549754,0.327037877373901,541895,255198
1195.74725922527,0.326828641325631,550217,259242
1199.3135925945,0.325335404890132,558646,264120
1202.87565560525,0.324497558387534,566936,268557
1206.43344825751,0.322705178845729,574871,273442
1209.98697055127,0.321567831357998,584009,278517
1213.53622248654,0.32042941546048,592297,283211
1217.08120406333,0.318981936529618,600817,288244
1220.62191528162,0.317376815809461,609171,293334
1224.15835614142,0.315899873743605,617327,298274
1228.86696784128,0.313639642693094,627487,304765
1232.39344453127,0.312573848093436,635633,309480
1235.91565086277,0.311494951799301,643259,313972
1239.43358683578,0.310108975895939,649938,318246
1242.94725245029,0.308843664463988,656394,322345
1246.45664770632,0.307823493672851,663106,326407
1249.96177260386,0.30687249316433,668724,329894
1253.4626271429,0.305858925883752,674207,333376
1256.95921132345,0.305169632796415,679486,336520
1261.61468078432,0.304454905497751,688849,341719
1265.10130079506,0.303303554838684,695984,346175
1268.58365044731,0.302592641045205,702461,349969
1272.06172974107,0.301921247762128,708753,353650
1275.53553867634,0.301173506596234,714304,357034
1279.00507725312,0.300715660901445,719569,360045
1282.4703454714,0.29981686925918,724645,363336
1285.9313433312,0.299055572529992,729048,366185
1289.38807083251,0.298261783730943,732985,368836
1292.84052797532,0.297818152631956,736499,370983
1297.43716138587,0.297119602873491,741210,373957
1300.87965435887,0.296752181030049,744744,376058
1304.31787697338,0.296476265147217,747212,377544
1307.7518292294,0.29601289770507,749444,379076
1311.18151112693,0.295589065878388,751328,380400
1314.60692266597,0.295118610452058,752890,381604
1318.02806384652,0.295003970715268,754358,382449
1321.44493466858,0.294795276622012,755143,383031
1324.85753513215,0.295156513579156,756166,383231
1329.4010263037,0.295280492071711,756449,383265
1332.80366259745,0.295582785906867,756557,383053
1336.20202853272,0.295997322737359,756034,382423
1339.59612410949,0.296414491782536,755878,381977
1342.98594932777,0.297116464345632,754643,380737
1346.37150418756,0.298015595094807,752614,378928
1349.75278868886,0.298799113895137,750678,377272
1353.12980283167,0.300012345502126,747664,374709
1356.50254661599,0.300472048199578,745208,373083
1359.87102004182,0.301526549092667,742100,370626
1364.35567516305,0.30290720339597,739375,368093
1367.71418441907,0.303550589393262,737506,366619
1371.06842331659,0.304285112777279,734817,364665
1374.41839185563,0.305126884481584,730210,361677
1377.76409003617,0.30623708453738,724272,357820
1381.10551785823,0.307296529927085,718014,353864
1384.44267532179,0.309243134804574,712404,349529
1387.77556242686,0.310967562658501,707002,345504
1391.10417917344,0.313246560968689,701860,341196
1395.53569205567,0.317242949735853,696195,335342
1398.85434463244,0.321017510941187,692375,330616
1402.16872685072,0.325700137362313,688985,325469
1405.47883871051,0.330407530883735,685965,320549
1408.7846802118,0.336658254689614,683513,314839
1412.08625135461,0.342561183404013,681170,309524
1415.38355213892,0.34863550423018,678414,303990
1418.67658256475,0.354391624091956,676572,299173
1421.96534263208,0.359955238654024,675127,294734
1425.24983234092,0.365055887491263,673554,290614
1429.62250917284,0.370373174307512,671671,286275
1432.89703471187,0.374174094778083,671019,283505
1436.16728989241,0.377740440789916,669536,280565
1439.43327471445,0.380120239161115,669011,278813
1442.69498917801,0.382636892662777,667756,276682
1445.95243328308,0.384373486455482,667090,275303
1449.20560702965,0.384883829058103,665822,274457
1452.45451041774,0.386379126125578,664019,272773
1455.69914344733,0.387530636863121,661740,271117
1460.01867804025,0.387606230144297,659060,269972
1463.25334690003,0.388100095988783,656794,268738
1466.48374540132,0.387672206312039,653669,267723
1469.70987354412,0.387192211680054,650630,266773
1472.93173132843,0.386233522164718,647268,265981
1476.14931875425,0.385454600033966,644313,265242
1479.36263582158,0.384134826499025,640515,264481
1482.57168253042,0.383568531741332,636778,263281
1485.77645888076,0.382003428713252,632904,262624
1488.97696487262,0.381193510737322,628629,261337
1493.23766341522,0.380046309209727,622362,259416
1496.42820523726,0.379408040495935,617778,257884
1499.61447670082,0.377872838410896,612681,256662
1502.79647780588,0.376704620763189,607526,255188
1505.97420855245,0.375956457284896,601941,253278
1509.14766894053,0.374307668360926,596407,251904
1512.31685897012,0.3735466297389,590461,249830
1515.48177864122,0.372388932985411,583800,247671
1518.64242795382,0.371232237146062,577804,245781
1522.84998425743,0.370241205649916,568925,242557
1526.00066940022,0.369034077975673,562331,240413
1529.14708418453,0.368612135252797,555450,237702
1532.28922861034,0.368114144022268,548124,234836
1535.42710267766,0.367956957701828,540275,231557
1538.5607063865,0.367016757618272,532462,228703
1541.69003973684,0.367093886109842,523992,225025
1544.81510272869,0.366019846914488,515627,221981
1547.93589536205,0.366122910914152,507111,218263
1551.05241763692,0.366556654093864,498780,214463
1555.2011378902,0.366068952730547,487211,209724
1558.30769599526,0.365583006729799,478672,206279
1561.40998374183,0.365776478756076,470017,202459
1564.5080011299,0.365836177222479,461031,198561
1567.60174815948,0.365267729103355,451737,194813
1570.69122483058,0.365684812902267,442541,190664
1573.77643114318,0.365764564116198,433146,186582
1576.85736709729,0.365279895204439,423654,182697
1579.93403269291,0.365565165729775,414182,178495
1584.0296107072,0.364345706909887,401465,173501
1587.09631213301,0.364657718819557,392394,169459
1590.15874320033,0.363595523988617,383196,165892
1593.21690390916,0.364391269520209,373617,161449
1596.27079425949,0.363950211776899,364802,157800
1599.32041425134,0.362350401040045,355816,154481
1602.36576388469,0.362677055352328,347048,150561
1605.40684315956,0.362095819121548,337917,146796
1608.44365207593,0.361218523940017,328441,142968
1611.47619063381,0.361074395860665,319844,139272
1615.51293259778,0.36114862614432,308414,134272
1618.53550698585,0.360440439736028,299656,130672
1621.55381101543,0.360573967154476,290857,126796
1624.56784468652,0.360769205253486,282609,123145
1627.57760799912,0.360637297988521,274241,119535
1630.58310095323,0.360076097174232,265345,115807
1633.58432354884,0.361398306559939,257161,111894
1636.58127578597,0.362723226517992,249023,108023
1639.5739576646,0.362132036546783,240682,104547
1643.55755738958,0.364009452586869,229778,99380
1646.5402750984,0.367007913871516,222083,95391
1649.51872244873,0.369272066103374,214346,91589
1652.49289944057,0.370516118649708,206176,87846
1655.46280607392,0.373524856662466,198787,84113
1658.42844234878,0.373681509953256,190681,80654
1661.38980826515,0.373217848180551,182958,77470
1664.34690382303,0.376078409511766,174803,73531
1667.29972902242,0.375695759455015,165507,69682
1670.24828386331,0.375349371051386,155768,65634
1674.17304753796,0.375047677943962,140479,59233
1677.11163820905,0.374252164378126,127332,53788
1680.04595852164,0.374987840309542,113422,47831
1682.97600847574,0.375280612703302,99458,41914
1685.90178807136,0.374794044937574,85630,36127
1688.82329730848,0.380276360872336,73367,30565
1691.74053618711,0.377159806610108,62006,26018
1694.65350470725,0.37351450476815,52512,22220
1697.56220286889,0.373528330535237,44509,18833
1701.43382430455,0.377196790964333,35577,14927
