***Scan Config Information***,,,,,,,***Reference Scan Information***,,,,,,,,
Scan Config Name:,herbario,,,,,,Scan Config Name:,Local New Reference,,,,,,,
Scan Config Type:,Slew,Num Section:,1,,,,Scan Config Type:,Slew,Num Section:,1,,,,,
Section Config Type:,Column,,,,,,Section Config Type:,Column,,,,,,,
Start Wavelength (nm):,900,,,,,,Start Wavelength (nm):,900,,,,,,,
End Wavelength (nm):,1700,,,,,,End Wavelength (nm):,1700,,,,,,,
Pattern Width (nm):,7.03,,,,,,Pattern Width (nm):,7.03,,,,,,,
Exposure (ms):,0.635,,,,,,Exposure (ms):,0.635,,,,,,,
Digital Resolution:,228,,,,,,Digital Resolution:,228,,,,,,,
Num Repeats:,20,,,,,,Num Repeats:,20,,,,,,,
PGA Gain:,64,(FixedPGA),,,,,PGA Gain:,64,(AutoPGA),,,,,,
System Temp (C):,41.57,,,,,,System Temp (C):,41.57,,,,,,,
Humidity (%):,24.56,,,,,,Humidity (%):,24.56,,,,,,,
Lamp Indicator:,1120,,,,,,Lamp Indicator:,1127,,,,,,,
Data Date-Time:,2023/11/10T14:22:47,,,,,,Data Date-Time:,2023/11/10T14:20:57,,,,,,,
Total Measurement Time in sec:,6.7842575,,,,,,,,,,,,,,
,,,,,,,,,,,,,,,
***General Information***,,,,,,,***Calibration Coefficients***,,,,,,,,
Model Name:,NIR-S-G1,,,,,,Shift Vector Coefficients:,-5.08535400046452,0.0413457073195706,-8.39863846568903E-05,,,,,
Serial Number:,B07R011,(95UB122GC0AB07R011),,,,,Pixel to Wavelength Coefficients:,1794.37724621797,-0.920219689099738,-0.000237242138379873,,,,,
GUI Version:,3.9.4,Revision:,526,,,,Versions (Cal/Ref/Cfg):,1,3,1,,,,,
TIVA Version:,2.4.7,,,,,,***Lamp Usage ***,,,,,,,,
DLPC Version:,2.3.1,,,,,,Total Time(hh:mm:ss):,1hr 18sec ,,,,,,,
UUID:,DE:67:0C:88:67:2B:47:21,,,,,,***Device/Error/Activation Status***,,,,,,,,
Main Board Version:,D,,,,,,Device Status:,0x00000001,Activation Status:,Activated,,,,,
Detector Board Version:,B,,,,,,Error status:,0x00000000,Error Code:,0x00000000000000000000000000000000,,,,,
,,,,,,,,,Error Details:,Not found,,,,,
***Scan Data***,,,,,,,,,,,,,,,
Wavelength (nm),Absorbance (AU),Reference Signal (unitless),Sample Signal (unitless)
901.81429527209,0.284091409592383,86742,45096
905.716563509274,0.283093604932403,94273,49124
909.614561387966,0.284646513527676,102068,52996
913.508288908168,0.282312283353768,110873,57878
917.397746069878,0.27990007430047,121910,63994
921.282932873098,0.27859810101763,135431,71305
925.163849317827,0.278717314350792,151993,80003
929.040495404065,0.277236798000389,170436,90017
932.912871131812,0.278140595060025,189806,100039
938.069395988934,0.275872645948003,213892,113324
941.931807546869,0.276293435257268,230143,121816
945.789948746314,0.276954436716971,244380,129155
949.643819587268,0.276297513914873,256922,135989
953.493420069731,0.2760125268641,268735,142335
957.338750193702,0.274543087222205,279885,148743
961.179809959184,0.275121711796293,290981,154434
965.016599366174,0.274758392883262,301220,160002
968.849118414673,0.274903690008363,311349,165327
973.952501032798,0.274580921439598,324458,172416
977.775055911486,0.274514583196124,334343,177696
981.593340431682,0.274767968399898,342882,182128
985.407354593388,0.274613814835099,350770,186384
989.217098396603,0.27383151603929,358072,190607
993.022571841327,0.273997518404787,364529,193970
996.823774927561,0.274081432138275,370058,196874
1000.6207076553,0.274201462885804,375626,199781
1004.41337002455,0.273319134853672,380140,202593
1008.20176203532,0.273597731307308,383619,204316
1013.24630860312,0.273410385875201,387117,206268
1017.02473644407,0.273191093408912,389030,207392
1020.79889392653,0.273083598652591,391066,208529
1024.5687810505,0.272805059321159,392234,209286
1028.33439781597,0.272610334516431,392667,209611
1032.09574422296,0.272526854132562,392732,209686
1035.85282027145,0.272481082009607,393200,209958
1039.60562596146,0.272419677426953,393077,209922
1043.35416129297,0.272338137816362,393138,209994
1048.34556562178,0.271930564169458,392556,209880
1052.08413678348,0.272158741566056,392403,209688
1055.81843758669,0.27187910367441,392070,209645
1059.54846803141,0.272206870956167,392031,209466
1063.27422811764,0.271832557767638,392114,209691
1066.99571784538,0.271382582832231,391792,209736
1070.71293721462,0.271553154647076,392742,210162
1074.42588622538,0.271231879431232,393755,210860
1078.13456487764,0.271270769573671,394795,211398
1081.83897317142,0.27126321144789,396566,212350
1086.77154144991,0.270853245367274,398955,213831
1090.46598557387,0.270691997734534,401086,215053
1094.15615933934,0.270566769747203,403370,216340
1097.84206274632,0.270815702495345,406034,217644
1101.52369579481,0.270539323633084,408975,219360
1105.20105848481,0.270756760169384,412183,220970
1108.87415081632,0.270979288858487,415636,222707
1112.54297278934,0.27032882362844,419177,224941
1116.20752440387,0.270427926210847,422939,226908
1121.08695044336,0.270580584239809,428646,229889
1124.74153788807,0.271290250139454,432959,231823
1128.3918549743,0.270487048699173,437306,234584
1132.03790170203,0.271401376789161,442160,236689
1135.67967807127,0.27119834566871,446993,239388
1139.31718408202,0.272301702456474,452123,241521
1142.95041973428,0.271872753177661,457504,244637
1146.57938502805,0.272274011649895,462863,247274
1150.20407996333,0.272439545444521,468028,249938
1153.82450454012,0.272663737015399,473791,252885
1158.6450945293,0.273372364599827,481936,256813
1162.25555493627,0.273762021363914,488242,259940
1165.86174498476,0.274200963571614,494412,262959
1169.46366467475,0.274592623927929,501057,266253
1173.06131400625,0.274593378763228,507891,269884
1176.65469297927,0.274578357609384,515237,273797
1180.24380159379,0.275414579881949,522518,277132
1183.82863984982,0.275376071358383,530486,281383
1187.40920774736,0.275693740789411,538451,285399
1192.17665549754,0.275969935512923,548971,290790
1195.74725922527,0.276282600839733,557405,295045
1199.3135925945,0.275976592711339,565927,299767
1202.87565560525,0.276069739132443,574000,303978
1206.43344825751,0.276255558054195,582280,308231
1209.98697055127,0.275841939378051,591300,313304
1213.53622248654,0.275422380254962,599851,318142
1217.08120406333,0.275645008073378,608591,322612
1220.62191528162,0.27537440918859,617035,327292
1224.15835614142,0.275377568351651,625380,331716
1228.86696784128,0.274672781138797,636032,337914
1232.39344453127,0.27423285864733,643889,342435
1235.91565086277,0.274269735740904,651255,346323
1239.43358683578,0.273561942263288,658059,350512
1242.94725245029,0.273722575182906,664966,354060
1246.45664770632,0.273970157404657,671710,357447
1249.96177260386,0.273453282631697,677120,360755
1253.4626271429,0.273550326501787,682558,363571
1256.95921132345,0.27346499702241,688252,366676
1261.61468078432,0.273477983514617,697656,371675
1265.10130079506,0.273687677735178,704840,375321
1268.58365044731,0.273421814860663,711229,378955
1272.06172974107,0.273268737994978,717710,382543
1275.53553867634,0.273303162525623,723499,385598
1279.00507725312,0.273485180640929,728480,388090
1282.4703454714,0.273340647724407,733867,391090
1285.9313433312,0.273476095257215,738293,393326
1289.38807083251,0.273346080799988,742311,395585
1292.84052797532,0.273291850144954,745862,397527
1297.43716138587,0.273346383483216,750630,400018
1300.87965435887,0.273371874308384,753975,401777
1304.31787697338,0.273315823664498,756195,403012
1307.7518292294,0.273495495049364,758676,404167
1311.18151112693,0.27372505571313,760651,405005
1314.60692266597,0.27372605281472,762529,406004
1318.02806384652,0.274101798304863,763924,406395
1321.44493466858,0.27390914717511,764147,406694
1324.85753513215,0.274222189580561,765232,406978
1329.4010263037,0.27465108500998,765766,406860
1332.80366259745,0.275006022718882,765584,406431
1336.20202853272,0.275846249885103,765519,405611
1339.59612410949,0.275973955344359,764753,405086
1342.98594932777,0.27683151225007,763936,403855
1346.37150418756,0.277400132178742,762109,402362
1349.75278868886,0.278106485728688,759817,400500
1353.12980283167,0.278850365428791,757237,398457
1356.50254661599,0.279760906469702,754947,396420
1359.87102004182,0.280318867610697,751875,394300
1364.35567516305,0.281049650073377,748962,392112
1367.71418441907,0.281910431320564,747047,390335
1371.06842331659,0.28218768447612,744278,388640
1374.41839185563,0.282871481754336,739380,385475
1377.76409003617,0.283659348061553,733409,381669
1381.10551785823,0.284609832526291,727253,377638
1384.44267532179,0.285354356175377,721313,373912
1387.77556242686,0.2869378698755,716120,369869
1391.10417917344,0.288476393092134,710833,365840
1395.53569205567,0.290718723261138,705216,361080
1398.85434463244,0.293106929776126,701104,357006
1402.16872685072,0.296178419277402,697983,352912
1405.47883871051,0.298930489184439,694594,348980
1408.7846802118,0.302709484801823,692282,344805
1412.08625135461,0.305874981275389,689382,340867
1415.38355213892,0.309934144532285,687106,336581
1418.67658256475,0.31353461959487,685284,332917
1421.96534263208,0.316622378687067,683606,329749
1425.24983234092,0.319663338272026,682184,326767
1429.62250917284,0.323120206611021,680363,323311
1432.89703471187,0.325255726715916,679593,321361
1436.16728989241,0.327158152153849,678218,319309
1439.43327471445,0.328062034166997,677145,318141
1442.69498917801,0.3294698091348,676164,316652
1445.95243328308,0.329929629516383,675540,316025
1449.20560702965,0.330653659454756,674314,314926
1452.45451041774,0.331289989191254,672350,313549
1455.69914344733,0.331382044748388,670144,312454
1460.01867804025,0.331819890817332,667533,310923
1463.25334690003,0.331635609141424,664769,309767
1466.48374540132,0.331509212304504,661823,308484
1469.70987354412,0.331311788672319,658698,307167
1472.93173132843,0.330953184952434,655506,305931
1476.14931875425,0.330659692010415,652301,304641
1479.36263582158,0.330528437343253,648664,303034
1482.57168253042,0.330156022005532,644701,301441
1485.77645888076,0.329256713071174,640787,300232
1488.97696487262,0.328661173837596,636601,298680
1493.23766341522,0.328493052687043,630225,295803
1496.42820523726,0.327741808028373,625418,294055
1499.61447670082,0.327288165920713,620537,292065
1502.79647780588,0.326552486146996,614831,289870
1505.97420855245,0.326121234968359,609326,287560
1509.14766894053,0.32509569204095,603551,285508
1512.31685897012,0.323958853179171,597653,283459
1515.48177864122,0.323152678585657,590995,280822
1518.64242795382,0.323079827134007,585101,278068
1522.84998425743,0.32143118725985,575996,274782
1526.00066940022,0.321376356430119,569275,271610
1529.14708418453,0.320366131752621,562020,268773
1532.28922861034,0.320339636991189,554450,265169
1535.42710267766,0.319451473717766,546665,261981
1538.5607063865,0.319823962181472,539010,258091
1541.69003973684,0.319023236644899,530425,254449
1544.81510272869,0.318588702501686,521931,250625
1547.93589536205,0.318368176732484,513284,246598
1551.05241763692,0.318071596171211,504680,242630
1555.2011378902,0.318057060629884,492826,236939
1558.30769599526,0.317696271053192,484322,233044
1561.40998374183,0.317699854196053,475722,228904
1564.5080011299,0.317251024055994,466540,224718
1567.60174815948,0.317218247951529,457136,220205
1570.69122483058,0.316901019453296,447656,215796
1573.77643114318,0.31704666708215,438246,211189
1576.85736709729,0.317138521064338,428872,206628
1579.93403269291,0.316324248295054,418889,202197
1584.0296107072,0.316349840194782,406257,196088
1587.09631213301,0.316753722725165,396961,191423
1590.15874320033,0.316230709613638,388016,187335
1593.21690390916,0.315061047402785,378090,183035
1596.27079425949,0.314873356126221,369364,178888
1599.32041425134,0.314676929809516,360114,174487
1602.36576388469,0.313692912628808,351087,170499
1605.40684315956,0.312932110965939,342057,166405
1608.44365207593,0.313107038407556,332904,161887
1611.47619063381,0.312699015958517,324090,157749
1615.51293259778,0.311564660988849,311995,152259
1618.53550698585,0.311061501317377,303324,148199
1621.55381101543,0.311854340722775,294809,143776
1624.56784468652,0.310690662677403,286014,139861
1627.57760799912,0.310858018144195,277667,135727
1630.58310095323,0.31076591283445,269032,131534
1633.58432354884,0.309542975279242,260574,127758
1636.58127578597,0.310716369088042,252031,123236
1639.5739576646,0.311627835224935,244119,119117
1643.55755738958,0.312118903568188,233043,113584
1646.5402750984,0.312914220106472,225203,109562
1649.51872244873,0.313206980134665,216969,105485
1652.49289944057,0.313021830072636,208963,101636
1655.46280607392,0.315706826260848,201595,97448
1658.42844234878,0.317268346117244,193952,93417
1661.38980826515,0.31663888128629,186162,89795
1664.34690382303,0.317411035159026,178138,85772
1667.29972902242,0.3187944128778,169541,81373
1670.24828386331,0.319429278976511,160700,77017
1674.17304753796,0.32187940375955,146117,69634
1677.11163820905,0.320394760079583,133801,63983
1680.04595852164,0.32247433207011,120428,57313
1682.97600847574,0.323192238378322,106713,50702
1685.90178807136,0.325444353649354,93222,44063
1688.82329730848,0.323677138412874,80121,38025
1691.74053618711,0.325488106932501,68334,32296
1694.65350470725,0.323532186467508,57413,27257
1697.56220286889,0.329351726541433,48929,22920
1701.43382430455,0.332053950006181,39119,18211
