***Scan Config Information***,,,,,,,***Reference Scan Information***,,,,,,,,
Scan Config Name:,herbario,,,,,,Scan Config Name:,Local New Reference,,,,,,,
Scan Config Type:,Slew,Num Section:,1,,,,Scan Config Type:,Slew,Num Section:,1,,,,,
Section Config Type:,Column,,,,,,Section Config Type:,Column,,,,,,,
Start Wavelength (nm):,900,,,,,,Start Wavelength (nm):,900,,,,,,,
End Wavelength (nm):,1700,,,,,,End Wavelength (nm):,1700,,,,,,,
Pattern Width (nm):,7.03,,,,,,Pattern Width (nm):,7.03,,,,,,,
Exposure (ms):,0.635,,,,,,Exposure (ms):,0.635,,,,,,,
Digital Resolution:,228,,,,,,Digital Resolution:,228,,,,,,,
Num Repeats:,20,,,,,,Num Repeats:,20,,,,,,,
PGA Gain:,64,(FixedPGA),,,,,PGA Gain:,64,(AutoPGA),,,,,,
System Temp (C):,40.77,,,,,,System Temp (C):,40.62,,,,,,,
Humidity (%):,26.7,,,,,,Humidity (%):,26.89,,,,,,,
Lamp Indicator:,1115,,,,,,Lamp Indicator:,1117,,,,,,,
Data Date-Time:,2023/11/10T13:50:13,,,,,,Data Date-Time:,2023/11/10T13:49:29,,,,,,,
Total Measurement Time in sec:,6.8224934,,,,,,,,,,,,,,
,,,,,,,,,,,,,,,
***General Information***,,,,,,,***Calibration Coefficients***,,,,,,,,
Model Name:,NIR-S-G1,,,,,,Shift Vector Coefficients:,-5.08535400046452,0.0413457073195706,-8.39863846568903E-05,,,,,
Serial Number:,B07R011,(95UB122GC0AB07R011),,,,,Pixel to Wavelength Coefficients:,1794.37724621797,-0.920219689099738,-0.000237242138379873,,,,,
GUI Version:,3.9.4,Revision:,526,,,,Versions (Cal/Ref/Cfg):,1,3,1,,,,,
TIVA Version:,2.4.7,,,,,,***Lamp Usage ***,,,,,,,,
DLPC Version:,2.3.1,,,,,,Total Time(hh:mm:ss):,54min 56sec ,,,,,,,
UUID:,DE:67:0C:88:67:2B:47:21,,,,,,***Device/Error/Activation Status***,,,,,,,,
Main Board Version:,D,,,,,,Device Status:,0x00000001,Activation Status:,Activated,,,,,
Detector Board Version:,B,,,,,,Error status:,0x00000000,Error Code:,0x00000000000000000000000000000000,,,,,
,,,,,,,,,Error Details:,Not found,,,,,
***Scan Data***,,,,,,,,,,,,,,,
Wavelength (nm),Absorbance (AU),Reference Signal (unitless),Sample Signal (unitless)
901.81429527209,0.227971298508787,87079,51516
905.716563509274,0.226148370632539,94166,55943
909.614561387966,0.224896002607665,101926,60728
913.508288908168,0.22461086743754,111044,66204
917.397746069878,0.222816128000146,121948,73006
921.282932873098,0.223703603847596,135700,81073
925.163849317827,0.220621565443688,151960,91434
929.040495404065,0.221091004771986,170647,102567
932.912871131812,0.220365778986673,190128,114467
938.069395988934,0.219519058357001,214425,129347
941.931807546869,0.21801121293488,230149,139315
945.789948746314,0.217515769770733,244274,148034
949.643819587268,0.217109368422423,256761,155747
953.493420069731,0.216316486203051,268539,163189
957.338750193702,0.215769293357341,279896,170305
961.179809959184,0.215023492508523,290743,177209
965.016599366174,0.214475731478282,300998,183691
968.849118414673,0.213622789243887,310959,190143
973.952501032798,0.212719939925004,323960,198505
977.775055911486,0.212562596670332,334083,204782
981.593340431682,0.212344746039689,342569,210089
985.407354593388,0.211625778792851,350316,215196
989.217098396603,0.210730041295269,357829,220265
993.022571841327,0.211129974378555,364175,223965
996.823774927561,0.210767899799824,369644,227518
1000.6207076553,0.210092169475514,375373,231404
1004.41337002455,0.209792409427603,379815,234304
1008.20176203532,0.209324111757678,383245,236675
1013.24630860312,0.209207664959273,386864,238974
1017.02473644407,0.208874314645047,388958,240452
1020.79889392653,0.208548151592491,390638,241672
1024.5687810505,0.208071366789412,392155,242877
1028.33439781597,0.208695065323958,392510,242748
1032.09574422296,0.208242088535182,392734,243140
1035.85282027145,0.20847324848993,393074,243221
1039.60562596146,0.208278663271049,392906,243226
1043.35416129297,0.208055343133933,393035,243431
1048.34556562178,0.207580133923034,392281,243230
1052.08413678348,0.207485808840946,392091,243165
1055.81843758669,0.207311410408734,391745,243048
1059.54846803141,0.207495635140832,391729,242935
1063.27422811764,0.207301106553884,391639,242988
1066.99571784538,0.207206154397909,391584,243007
1070.71293721462,0.207309258829153,392391,243450
1074.42588622538,0.206728796644588,393454,244436
1078.13456487764,0.207165710980711,394762,245002
1081.83897317142,0.20680295189864,396316,246172
1086.77154144991,0.206877042385899,398530,247505
1090.46598557387,0.207336376716207,400994,248772
1094.15615933934,0.20776518748304,403720,250216
1097.84206274632,0.207963853282998,405979,251501
1101.52369579481,0.207400068645759,408733,253536
1105.20105848481,0.20812534666377,412318,255333
1108.87415081632,0.208099857481795,415977,257614
1112.54297278934,0.208328202678828,419372,259580
1116.20752440387,0.207720437015768,422864,262108
1121.08695044336,0.20848458334458,428580,265184
1124.74153788807,0.208820092284138,433034,267733
1128.3918549743,0.209205016899557,437784,270430
1132.03790170203,0.209710418829486,442519,273037
1135.67967807127,0.209992698614137,447265,275786
1139.31718408202,0.209968006517617,452236,278867
1142.95041973428,0.21064793349547,457585,281724
1146.57938502805,0.211189923107097,462788,284572
1150.20407996333,0.2120453263869,468289,287388
1153.82450454012,0.21187578573057,474071,291050
1158.6450945293,0.212768222314346,482280,295482
1162.25555493627,0.212972349026662,488160,298944
1165.86174498476,0.213190465505246,494674,302781
1169.46366467475,0.213525573586103,501439,306685
1173.06131400625,0.213734792752824,508448,310822
1176.65469297927,0.213597053755602,515608,315299
1180.24380159379,0.214150016642424,522690,319223
1183.82863984982,0.214313704253337,530584,323922
1187.40920774736,0.21468742104827,538846,328683
1192.17665549754,0.214151506643909,549188,335405
1195.74725922527,0.214661267565974,557723,340218
1199.3135925945,0.21443417427129,566207,345574
1202.87565560525,0.214718772005967,574643,350493
1206.43344825751,0.214685251310545,582835,355517
1209.98697055127,0.214597461661449,592014,361189
1213.53622248654,0.214912698607545,600801,366284
1217.08120406333,0.213768178768741,608898,372200
1220.62191528162,0.213298426198334,617414,377814
1224.15835614142,0.212979492733871,625867,383268
1228.86696784128,0.212308949548742,636507,390386
1232.39344453127,0.21218067645066,644420,395356
1235.91565086277,0.211904583925946,651888,400192
1239.43358683578,0.211750311924877,658818,404590
1242.94725245029,0.211083429178364,665595,409380
1246.45664770632,0.211123513671571,672393,413523
1249.96177260386,0.210994971764335,677898,417032
1253.4626271429,0.210693615675902,683261,420623
1256.95921132345,0.210513016529629,688785,424200
1261.61468078432,0.210833852693162,698301,429743
1265.10130079506,0.210826125884039,705482,434170
1268.58365044731,0.210368366296546,712160,438742
1272.06172974107,0.21045212522921,718504,442565
1275.53553867634,0.210382703556314,724413,446276
1279.00507725312,0.210263483435458,729670,449638
1282.4703454714,0.210261495055602,734733,452760
1285.9313433312,0.210394078167633,739410,455503
1289.38807083251,0.210056823146079,743209,458199
1292.84052797532,0.210023023931558,746828,460466
1297.43716138587,0.210000559756848,751684,463484
1300.87965435887,0.209817058397928,754646,465507
1304.31787697338,0.209830102969331,757389,467185
1307.7518292294,0.209932512752175,759567,468418
1311.18151112693,0.210169332274056,761680,469465
1314.60692266597,0.210142474103549,763630,470696
1318.02806384652,0.210357983364985,764582,471049
1321.44493466858,0.210199653494605,765504,471789
1324.85753513215,0.210466712932878,766535,472134
1329.4010263037,0.210647058448583,767123,472300
1332.80366259745,0.211228872732103,766982,471581
1336.20202853272,0.21171346986624,766425,470713
1339.59612410949,0.212332846606956,766172,469887
1342.98594932777,0.212935935102222,765132,468598
1346.37150418756,0.213601371202738,763154,466671
1349.75278868886,0.214396047688751,761203,464627
1353.12980283167,0.215071649093103,758514,462266
1356.50254661599,0.215340695248618,755830,460345
1359.87102004182,0.216057057232471,752963,457843
1364.35567516305,0.216825201791274,750052,455267
1367.71418441907,0.21680900876179,748085,454090
1371.06842331659,0.217754495888932,745535,451558
1374.41839185563,0.218353455805184,740655,447984
1377.76409003617,0.218820256530844,734333,443683
1381.10551785823,0.219922216577993,728468,439024
1384.44267532179,0.220823264651806,722487,434517
1387.77556242686,0.222020010464466,716946,429998
1391.10417917344,0.223473169376778,712045,425632
1395.53569205567,0.22613467332308,706030,419458
1398.85434463244,0.228555423992141,702490,415035
1402.16872685072,0.231285813380689,699007,410389
1405.47883871051,0.234112534928716,695987,405965
1408.7846802118,0.23758721598337,693502,401292
1412.08625135461,0.240663306562874,690723,396863
1415.38355213892,0.244058763021236,688279,392379
1418.67658256475,0.246751045425639,686505,388949
1421.96534263208,0.249981386966385,685035,385240
1425.24983234092,0.251976526841598,683500,382615
1429.62250917284,0.254116268567329,681501,379621
1432.89703471187,0.255283351642741,680687,378150
1436.16728989241,0.256945881646233,679308,375942
1439.43327471445,0.257509198464826,678887,375222
1442.69498917801,0.257425101914646,677511,374534
1445.95243328308,0.258022453125842,676681,373561
1449.20560702965,0.258216033104687,675667,372835
1452.45451041774,0.258116315296161,673508,371729
1455.69914344733,0.258632449057577,671519,370191
1460.01867804025,0.258691815126249,668474,368462
1463.25334690003,0.258670086736382,666162,367206
1466.48374540132,0.258113295716687,663301,366098
1469.70987354412,0.25799422108197,659924,364334
1472.93173132843,0.257559956057545,656704,362919
1476.14931875425,0.257512324940332,653681,361288
1479.36263582158,0.256177948539512,649641,360160
1482.57168253042,0.2560686682245,646118,358297
1485.77645888076,0.255550062779976,641732,356290
1488.97696487262,0.255543128663082,637943,354192
1493.23766341522,0.254512856414645,631181,351270
1496.42820523726,0.253968925427668,626590,349152
1499.61447670082,0.253203473266405,621549,346954
1502.79647780588,0.25266712246904,616239,344415
1505.97420855245,0.252069780963076,610716,341798
1509.14766894053,0.251232479448196,605035,339272
1512.31685897012,0.250369791135582,599020,336567
1515.48177864122,0.249818587701012,592437,333291
1518.64242795382,0.248412692004454,586293,330904
1522.84998425743,0.248168049285404,577270,325995
1526.00066940022,0.247400939508435,570524,322755
1529.14708418453,0.24663764943913,563445,319311
1532.28922861034,0.246231974455935,555661,315194
1535.42710267766,0.246029669882443,548123,311063
1538.5607063865,0.245974618303968,540111,306555
1541.69003973684,0.245344669052471,531705,302222
1544.81510272869,0.244772892229838,523120,297734
1547.93589536205,0.244664870575904,514792,293067
1551.05241763692,0.244096116985059,505789,288319
1555.2011378902,0.243943002325942,494340,281892
1558.30769599526,0.24316012372895,485681,277454
1561.40998374183,0.243161018548692,476849,272408
1564.5080011299,0.242390766345039,467807,267717
1567.60174815948,0.242512337295847,458419,262271
1570.69122483058,0.2423755026673,448998,256962
1573.77643114318,0.241862710817574,439302,251710
1576.85736709729,0.241558182296015,429932,246514
1579.93403269291,0.240755350664804,419976,241251
1584.0296107072,0.240225758396735,407601,234428
1587.09631213301,0.239749141876867,398067,229196
1590.15874320033,0.239579067487265,388925,224020
1593.21690390916,0.238820717935885,379276,218844
1596.27079425949,0.238027290876093,370287,214048
1599.32041425134,0.237310753501029,361245,209166
1602.36576388469,0.237227414489576,352169,203950
1605.40684315956,0.236647171069925,343118,198974
1608.44365207593,0.235810222292101,333826,193959
1611.47619063381,0.235521282795144,324925,188913
1615.51293259778,0.234447332431775,312960,182407
1618.53550698585,0.234411232273802,304248,177344
1621.55381101543,0.234200708362761,295724,172459
1624.56784468652,0.23305529882398,286842,167721
1627.57760799912,0.232838790222785,278547,162952
1630.58310095323,0.23210256535814,269681,158033
1633.58432354884,0.232246237759308,261264,153050
1636.58127578597,0.233379399702634,252968,147804
1639.5739576646,0.232166298707293,244565,143294
1643.55755738958,0.233074222721955,233758,136676
1646.5402750984,0.232790925956917,225598,131991
1649.51872244873,0.233954443298354,217756,127062
1652.49289944057,0.234163414357638,209641,122268
1655.46280607392,0.23529997509248,202047,117531
1658.42844234878,0.235326899760602,194232,112978
1661.38980826515,0.23635708018315,186761,108375
1664.34690382303,0.236511577485412,178420,103498
1667.29972902242,0.23807228568132,169526,97986
1670.24828386331,0.237409998608776,160081,92668
1674.17304753796,0.23744292088873,144930,83891
1677.11163820905,0.240506903177158,132502,76158
1680.04595852164,0.240011270917736,118999,68475
1682.97600847574,0.23989928925051,104640,60228
1685.90178807136,0.24255183843538,91281,52219
1688.82329730848,0.241273564716318,77988,44746
1691.74053618711,0.244273595698601,66528,37908
1694.65350470725,0.239674691232892,56306,32425
1697.56220286889,0.243332138646144,47641,27205
1701.43382430455,0.24493462700155,38382,21837
