***Scan Config Information***,,,,,,,***Reference Scan Information***,,,,,,,,
Scan Config Name:,herbario,,,,,,Scan Config Name:,Local New Reference,,,,,,,
Scan Config Type:,Slew,Num Section:,1,,,,Scan Config Type:,Slew,Num Section:,1,,,,,
Section Config Type:,Column,,,,,,Section Config Type:,Column,,,,,,,
Start Wavelength (nm):,900,,,,,,Start Wavelength (nm):,900,,,,,,,
End Wavelength (nm):,1700,,,,,,End Wavelength (nm):,1700,,,,,,,
Pattern Width (nm):,7.03,,,,,,Pattern Width (nm):,7.03,,,,,,,
Exposure (ms):,0.635,,,,,,Exposure (ms):,0.635,,,,,,,
Digital Resolution:,228,,,,,,Digital Resolution:,228,,,,,,,
Num Repeats:,20,,,,,,Num Repeats:,20,,,,,,,
PGA Gain:,64,(FixedPGA),,,,,PGA Gain:,64,(AutoPGA),,,,,,
System Temp (C):,41.44,,,,,,System Temp (C):,41.07,,,,,,,
Humidity (%):,19.68,,,,,,Humidity (%):,19.87,,,,,,,
Lamp Indicator:,1123,,,,,,Lamp Indicator:,1123,,,,,,,
Data Date-Time:,2023/11/10T17:57:10,,,,,,Data Date-Time:,2023/11/10T17:54:09,,,,,,,
Total Measurement Time in sec:,6.7346873,,,,,,,,,,,,,,
,,,,,,,,,,,,,,,
***General Information***,,,,,,,***Calibration Coefficients***,,,,,,,,
Model Name:,NIR-S-G1,,,,,,Shift Vector Coefficients:,-5.08535400046452,0.0413457073195706,-8.39863846568903E-05,,,,,
Serial Number:,B07R011,(95UB122GC0AB07R011),,,,,Pixel to Wavelength Coefficients:,1794.37724621797,-0.920219689099738,-0.000237242138379873,,,,,
GUI Version:,3.9.4,Revision:,526,,,,Versions (Cal/Ref/Cfg):,1,3,1,,,,,
TIVA Version:,2.4.7,,,,,,***Lamp Usage ***,,,,,,,,
DLPC Version:,2.3.1,,,,,,Total Time(hh:mm:ss):,1hr 29min 4sec ,,,,,,,
UUID:,DE:67:0C:88:67:2B:47:21,,,,,,***Device/Error/Activation Status***,,,,,,,,
Main Board Version:,D,,,,,,Device Status:,0x00000001,Activation Status:,Activated,,,,,
Detector Board Version:,B,,,,,,Error status:,0x00000000,Error Code:,0x00000000000000000000000000000000,,,,,
,,,,,,,,,Error Details:,Not found,,,,,
***Scan Data***,,,,,,,,,,,,,,,
Wavelength (nm),Absorbance (AU),Reference Signal (unitless),Sample Signal (unitless)
901.81429527209,0.189207127396726,87146,56369
905.716563509274,0.18774769210661,94778,61512
909.614561387966,0.186335203828201,102031,66435
913.508288908168,0.187903277110722,111212,72152
917.397746069878,0.187813086070856,122383,79416
921.282932873098,0.185941620827364,135490,88301
925.163849317827,0.18540427883765,151892,99113
929.040495404065,0.186031494128733,170826,111307
932.912871131812,0.186091665530456,190325,123995
938.069395988934,0.184840383364213,214425,140099
941.931807546869,0.184930158447638,230684,150691
945.789948746314,0.184309489436899,245022,160286
949.643819587268,0.184334772886472,257494,168435
953.493420069731,0.183873418358588,269546,176506
957.338750193702,0.183515783540068,280939,184118
961.179809959184,0.183565089975533,291937,191304
965.016599366174,0.183245621609331,302107,198114
968.849118414673,0.183129908047172,312320,204866
973.952501032798,0.182641876605377,325347,213651
977.775055911486,0.183105208537402,335414,220027
981.593340431682,0.182870085765107,343984,225771
985.407354593388,0.182405844712195,351861,231188
989.217098396603,0.18207606114362,359528,236405
993.022571841327,0.181334251938022,365546,240773
996.823774927561,0.182033293863014,371223,244119
1000.6207076553,0.181282387144023,376877,248266
1004.41337002455,0.180876070572846,381675,251662
1008.20176203532,0.181386817357969,385249,253720
1013.24630860312,0.180039172913504,388542,256684
1017.02473644407,0.17993011091303,391008,258378
1020.79889392653,0.179909579506994,392530,259396
1024.5687810505,0.179923820639354,394094,260421
1028.33439781597,0.17977120170634,394485,260771
1032.09574422296,0.179022851451306,394351,261132
1035.85282027145,0.17904259748209,394896,261481
1039.60562596146,0.179007586548996,394914,261514
1043.35416129297,0.178935811085205,395042,261642
1048.34556562178,0.178634992688534,394432,261419
1052.08413678348,0.178578749160808,394307,261370
1055.81843758669,0.178513160052625,393896,261137
1059.54846803141,0.178269524447261,393957,261324
1063.27422811764,0.177617215852765,393730,261566
1066.99571784538,0.178140106897526,394239,261589
1070.71293721462,0.177833935192279,394794,262142
1074.42588622538,0.177127789436328,395578,263090
1078.13456487764,0.17755044390386,396958,263751
1081.83897317142,0.177853590107107,398672,264705
1086.77154144991,0.177491001286846,400735,266297
1090.46598557387,0.177383734850523,402980,267855
1094.15615933934,0.177398173674518,405357,269426
1097.84206274632,0.177142876198018,407896,271273
1101.52369579481,0.177702700025621,411221,273132
1105.20105848481,0.177306122455147,414188,275354
1108.87415081632,0.17687278089355,417709,277972
1112.54297278934,0.177063633183056,420976,280023
1116.20752440387,0.177927303502425,425247,282302
1121.08695044336,0.177326607702999,430389,286111
1124.74153788807,0.177798654325453,435048,288894
1128.3918549743,0.177855454732195,439569,291858
1132.03790170203,0.178581870601571,444440,294599
1135.67967807127,0.179108831809725,449298,297458
1139.31718408202,0.179094558670338,454328,300798
1142.95041973428,0.179161153907627,459839,304400
1146.57938502805,0.179851854786691,464815,307205
1150.20407996333,0.180046443003683,470008,310498
1153.82450454012,0.180924956091219,476135,313910
1158.6450945293,0.181109176782958,484214,319101
1162.25555493627,0.181689221620343,490120,322562
1165.86174498476,0.182157673748297,496744,326569
1169.46366467475,0.182351840877177,503210,330672
1173.06131400625,0.183261850194247,510707,334896
1176.65469297927,0.183193531325928,517552,339438
1180.24380159379,0.18362444687147,524737,343809
1183.82863984982,0.184279636265105,532825,348582
1187.40920774736,0.184104223424744,540824,353958
1192.17665549754,0.18487376588741,551466,360284
1195.74725922527,0.185161893275884,559743,365449
1199.3135925945,0.185286055239039,568469,371040
1202.87565560525,0.185204316557619,576548,376384
1206.43344825751,0.18540546788115,585270,381901
1209.98697055127,0.185028606278205,594196,388062
1213.53622248654,0.185025753489004,602929,393768
1217.08120406333,0.184336756864661,611346,399899
1220.62191528162,0.184019359433332,619862,405766
1224.15835614142,0.183661167872938,628323,411644
1228.86696784128,0.183434435932957,639324,419070
1232.39344453127,0.183009222645374,647029,424536
1235.91565086277,0.18249715827625,654595,430007
1239.43358683578,0.18216842144059,661462,434847
1242.94725245029,0.182058980992237,668525,439601
1246.45664770632,0.182209709809571,675186,443827
1249.96177260386,0.181983267850718,681027,447900
1253.4626271429,0.181773615988925,686405,451655
1256.95921132345,0.18152892462308,692217,455736
1261.61468078432,0.18155912104499,701806,462017
1265.10130079506,0.181395925084599,708805,466800
1268.58365044731,0.181195190283163,715371,471342
1272.06172974107,0.181427154439851,722043,475484
1275.53553867634,0.181127852435069,727828,479624
1279.00507725312,0.181013698299549,733030,483179
1282.4703454714,0.181041350024124,738179,486542
1285.9313433312,0.181047683915813,742925,489663
1289.38807083251,0.181154950453093,746989,492220
1292.84052797532,0.181097158245956,750589,494658
1297.43716138587,0.180907795444855,755267,497958
1300.87965435887,0.180582693696069,758168,500245
1304.31787697338,0.180917786279488,761177,501843
1307.7518292294,0.181040365598696,763786,503421
1311.18151112693,0.181324935902601,765653,504321
1314.60692266597,0.181267288643549,767461,505579
1318.02806384652,0.18145594438653,768572,506091
1321.44493466858,0.18183817093571,769650,506355
1324.85753513215,0.18199347648409,770275,506585
1329.4010263037,0.182473520537318,771066,506545
1332.80366259745,0.182794350088902,770929,506081
1336.20202853272,0.183172833136069,770479,505345
1339.59612410949,0.184448684140977,770290,503739
1342.98594932777,0.184944148302023,768925,502273
1346.37150418756,0.185730740333168,767543,500463
1349.75278868886,0.186334870983683,765182,498230
1353.12980283167,0.187568064450751,762705,495209
1356.50254661599,0.188204190298755,760479,493041
1359.87102004182,0.188805840653273,757729,490578
1364.35567516305,0.190110884205266,755055,487380
1367.71418441907,0.191253030908365,752997,484775
1371.06842331659,0.191663242748769,749845,482290
1374.41839185563,0.192743281944962,745356,478212
1377.76409003617,0.193757715256601,739183,473145
1381.10551785823,0.194817862745673,732990,468037
1384.44267532179,0.196399504131087,727252,462685
1387.77556242686,0.198053246115104,721437,457241
1391.10417917344,0.200315326898828,716329,451645
1395.53569205567,0.203857282239799,710658,444430
1398.85434463244,0.207451679237707,706737,438335
1402.16872685072,0.21112810338134,703067,432383
1405.47883871051,0.215790251400905,700220,426034
1408.7846802118,0.220416349939781,697205,419705
1412.08625135461,0.22522396245692,694646,413561
1415.38355213892,0.230178302473048,691943,407279
1418.67658256475,0.235239346876325,690435,401683
1421.96534263208,0.238899156311277,688748,397339
1425.24983234092,0.243134893446947,687317,392665
1429.62250917284,0.247219347204687,685272,387832
1432.89703471187,0.249754979164858,684566,385177
1436.16728989241,0.251859174251861,682876,382369
1439.43327471445,0.25350949870294,682249,380569
1442.69498917801,0.254629837571822,681211,379011
1445.95243328308,0.255488658496378,680483,377858
1449.20560702965,0.255955961103014,679310,376801
1452.45451041774,0.256320511579719,677367,375408
1455.69914344733,0.256090418831038,675084,374341
1460.01867804025,0.255732523221125,672353,373134
1463.25334690003,0.256038100896012,669961,371545
1466.48374540132,0.25515607635071,666858,370576
1469.70987354412,0.254426311169799,663579,369374
1472.93173132843,0.253798243018448,660514,368200
1476.14931875425,0.253088732120226,657292,367003
1479.36263582158,0.252123671292151,653501,365698
1482.57168253042,0.251558198708371,649631,364006
1485.77645888076,0.250312948542988,645680,362831
1488.97696487262,0.249819863237434,641570,360931
1493.23766341522,0.248601293409956,634951,358211
1496.42820523726,0.247653316833415,630015,356203
1499.61447670082,0.246838092294716,625075,354074
1502.79647780588,0.245926345769792,619825,351838
1505.97420855245,0.244836950048131,614241,349544
1509.14766894053,0.243573366251346,608635,347363
1512.31685897012,0.242780229786922,602449,344461
1515.48177864122,0.2418646391283,595817,341388
1518.64242795382,0.24102198821825,589412,338374
1522.84998425743,0.239416179979016,580510,334498
1526.00066940022,0.239013766458791,573968,331035
1529.14708418453,0.238504865517757,566727,327242
1532.28922861034,0.238338743374079,559158,322995
1535.42710267766,0.23712280567329,551171,319274
1538.5607063865,0.236939593401275,543056,314706
1541.69003973684,0.236404351059478,534859,310338
1544.81510272869,0.236069984968681,526417,305675
1547.93589536205,0.235589075258421,517794,301001
1551.05241763692,0.234832333856333,508782,296278
1555.2011378902,0.234607468533897,497098,289624
1558.30769599526,0.234619309456888,488557,284640
1561.40998374183,0.234185503202482,479789,279811
1564.5080011299,0.234543598868735,470693,274280
1567.60174815948,0.233545386644488,460918,269202
1570.69122483058,0.233615051586952,451666,263756
1573.77643114318,0.233254429898675,441925,258282
1576.85736709729,0.233210118850958,432253,252655
1579.93403269291,0.232990367859574,422756,247229
1584.0296107072,0.232332711482347,409917,240084
1587.09631213301,0.231701050823957,400454,234883
1590.15874320033,0.231465418255223,391388,229690
1593.21690390916,0.231141133616788,381387,223988
1596.27079425949,0.230999889735751,372679,218945
1599.32041425134,0.229194665663239,363356,214357
1602.36576388469,0.229378303639498,354181,208856
1605.40684315956,0.228727856375626,345022,203760
1608.44365207593,0.228660751898131,335757,198319
1611.47619063381,0.228358640332422,326863,193200
1615.51293259778,0.227546697456994,314989,186530
1618.53550698585,0.227005038965349,305978,181420
1621.55381101543,0.226661406374691,297207,176359
1624.56784468652,0.226526599033428,288612,171312
1627.57760799912,0.227272363423532,280162,166011
1630.58310095323,0.226617400072697,271333,161022
1633.58432354884,0.22718297402647,262901,155815
1636.58127578597,0.226750741019563,254311,150874
1639.5739576646,0.227363385066843,246269,145897
1643.55755738958,0.228478902950708,235503,139161
1646.5402750984,0.229034289756089,227210,134089
1649.51872244873,0.22916112172637,219149,129294
1652.49289944057,0.230197605755193,210938,124153
1655.46280607392,0.232164771595237,203292,119112
1658.42844234878,0.233010363109444,195627,114398
1661.38980826515,0.234445225157912,187737,109422
1664.34690382303,0.23534803731921,179545,104430
1667.29972902242,0.236447135832786,170875,99136
1670.24828386331,0.236269360864785,161801,93910
1674.17304753796,0.236926477449434,146787,85067
1677.11163820905,0.237028020291947,134322,77825
1680.04595852164,0.238645292417814,120647,69642
1682.97600847574,0.238551004014022,106472,61473
1685.90178807136,0.238235561042811,92675,53546
1688.82329730848,0.239208146766831,79592,45884
1691.74053618711,0.236990125150529,67798,39285
1694.65350470725,0.243818581016695,57640,32878
1697.56220286889,0.237124662253549,48617,28162
1701.43382430455,0.245471450852539,39195,22272
