***Scan Config Information***,,,,,,,***Reference Scan Information***,,,,,,,,
Scan Config Name:,herbario,,,,,,Scan Config Name:,Local New Reference,,,,,,,
Scan Config Type:,Slew,Num Section:,1,,,,Scan Config Type:,Slew,Num Section:,1,,,,,
Section Config Type:,Column,,,,,,Section Config Type:,Column,,,,,,,
Start Wavelength (nm):,900,,,,,,Start Wavelength (nm):,900,,,,,,,
End Wavelength (nm):,1700,,,,,,End Wavelength (nm):,1700,,,,,,,
Pattern Width (nm):,7.03,,,,,,Pattern Width (nm):,7.03,,,,,,,
Exposure (ms):,0.635,,,,,,Exposure (ms):,0.635,,,,,,,
Digital Resolution:,228,,,,,,Digital Resolution:,228,,,,,,,
Num Repeats:,20,,,,,,Num Repeats:,20,,,,,,,
PGA Gain:,64,(FixedPGA),,,,,PGA Gain:,64,(AutoPGA),,,,,,
System Temp (C):,41.64,,,,,,System Temp (C):,41.15,,,,,,,
Humidity (%):,18.79,,,,,,Humidity (%):,19.07,,,,,,,
Lamp Indicator:,1127,,,,,,Lamp Indicator:,1123,,,,,,,
Data Date-Time:,2023/11/10T18:25:11,,,,,,Data Date-Time:,2023/11/10T18:22:47,,,,,,,
Total Measurement Time in sec:,6.8132603,,,,,,,,,,,,,,
,,,,,,,,,,,,,,,
***General Information***,,,,,,,***Calibration Coefficients***,,,,,,,,
Model Name:,NIR-S-G1,,,,,,Shift Vector Coefficients:,-5.08535400046452,0.0413457073195706,-8.39863846568903E-05,,,,,
Serial Number:,B07R011,(95UB122GC0AB07R011),,,,,Pixel to Wavelength Coefficients:,1794.37724621797,-0.920219689099738,-0.000237242138379873,,,,,
GUI Version:,3.9.4,Revision:,526,,,,Versions (Cal/Ref/Cfg):,1,3,1,,,,,
TIVA Version:,2.4.7,,,,,,***Lamp Usage ***,,,,,,,,
DLPC Version:,2.3.1,,,,,,Total Time(hh:mm:ss):,1hr 33min 46sec ,,,,,,,
UUID:,DE:67:0C:88:67:2B:47:21,,,,,,***Device/Error/Activation Status***,,,,,,,,
Main Board Version:,D,,,,,,Device Status:,0x00000001,Activation Status:,Activated,,,,,
Detector Board Version:,B,,,,,,Error status:,0x00000000,Error Code:,0x00000000000000000000000000000000,,,,,
,,,,,,,,,Error Details:,Not found,,,,,
***Scan Data***,,,,,,,,,,,,,,,
Wavelength (nm),Absorbance (AU),Reference Signal (unitless),Sample Signal (unitless)
901.81429527209,0.190161286759417,86250,55667
905.716563509274,0.189223816197776,93550,60509
909.614561387966,0.187658004181973,100868,65478
913.508288908168,0.188502063944188,109859,71176
917.397746069878,0.187419991511669,120708,78400
921.282932873098,0.186135329594264,134000,87291
925.163849317827,0.187275099488865,150356,97689
929.040495404065,0.187173839153858,168977,109813
932.912871131812,0.184984398142246,187824,122678
938.069395988934,0.184875170199556,212111,138576
941.931807546869,0.184884802435305,228145,149048
945.789948746314,0.184376211241596,242300,158481
949.643819587268,0.182785876213919,254597,167135
953.493420069731,0.183011785206626,266497,174856
957.338750193702,0.182639650659918,277679,182349
961.179809959184,0.182547842122932,288442,189457
965.016599366174,0.181942561342513,298593,196398
968.849118414673,0.181462507581327,308707,203275
973.952501032798,0.181437032392311,321899,211974
977.775055911486,0.181034399368715,331567,218543
981.593340431682,0.180632459493184,339982,224297
985.407354593388,0.180103070595634,347852,229769
989.217098396603,0.179674927928889,355085,234778
993.022571841327,0.179270766535452,361444,239205
996.823774927561,0.17876857353887,366837,243055
1000.6207076553,0.178498416955935,372511,246968
1004.41337002455,0.178220348909428,376962,250079
1008.20176203532,0.177613321381695,380444,252742
1013.24630860312,0.176599778779653,383687,255492
1017.02473644407,0.175942253954111,386122,257503
1020.79889392653,0.175913746981923,387701,258573
1024.5687810505,0.175530263787934,389146,259766
1028.33439781597,0.174627309586536,389302,260411
1032.09574422296,0.174665434314019,389846,260752
1035.85282027145,0.173736318827331,390184,261537
1039.60562596146,0.172750842277008,389898,261939
1043.35416129297,0.172532025235201,390200,262274
1048.34556562178,0.171754412994576,389349,262171
1052.08413678348,0.170446185244299,388822,262606
1055.81843758669,0.170648745327563,388876,262520
1059.54846803141,0.169627859657832,388560,262924
1063.27422811764,0.168825280893281,388797,263571
1066.99571784538,0.168780072592747,388935,263692
1070.71293721462,0.167489381215542,389322,264740
1074.42588622538,0.166366081894383,390119,265969
1078.13456487764,0.165911981883602,391474,267172
1081.83897317142,0.166106536446375,393473,268416
1086.77154144991,0.165160054822812,395634,270479
1090.46598557387,0.164497885918862,397498,272168
1094.15615933934,0.164248341181786,400278,274229
1097.84206274632,0.163492542304623,402419,276176
1101.52369579481,0.163200097977123,405388,278401
1105.20105848481,0.162163046178798,408506,281213
1108.87415081632,0.162509485850044,412090,283454
1112.54297278934,0.161708772749812,415442,286287
1116.20752440387,0.161969226781612,419253,288740
1121.08695044336,0.161970405811048,424962,292671
1124.74153788807,0.161748765918841,428935,295558
1128.3918549743,0.161861386765141,433542,298655
1132.03790170203,0.162410398966264,438634,301781
1135.67967807127,0.161715591774355,443231,305432
1139.31718408202,0.162095666018147,447911,308387
1142.95041973428,0.162440896410258,453112,311720
1146.57938502805,0.162329207797293,458384,315428
1150.20407996333,0.162940137125296,463673,318619
1153.82450454012,0.163381952314194,469615,322374
1158.6450945293,0.164226695087943,477528,327169
1162.25555493627,0.164463372822097,483567,331126
1165.86174498476,0.164552229826661,489792,335320
1169.46366467475,0.165134982189605,496562,339499
1173.06131400625,0.1652789452625,503059,343827
1176.65469297927,0.165220185706197,510228,348774
1180.24380159379,0.165831081479805,517376,353163
1183.82863984982,0.165794496603798,525269,358581
1187.40920774736,0.166132424549831,533260,363753
1192.17665549754,0.166566535938144,543706,370508
1195.74725922527,0.166960226019994,551828,375702
1199.3135925945,0.166889090212736,560242,381493
1202.87565560525,0.167036659069832,568734,387144
1206.43344825751,0.166655664859247,576876,393031
1209.98697055127,0.16646423547809,585847,399319
1213.53622248654,0.166318856106673,594458,405324
1217.08120406333,0.165623766728345,602744,411632
1220.62191528162,0.165035522755111,610990,417829
1224.15835614142,0.164598878758937,619252,423905
1228.86696784128,0.163812496313091,629752,431874
1232.39344453127,0.163521761417121,637829,437706
1235.91565086277,0.162914578437149,645017,443258
1239.43358683578,0.162520920786906,652202,448602
1242.94725245029,0.162154482028691,658902,453593
1246.45664770632,0.162071205287625,665410,458161
1249.96177260386,0.16154893258058,671035,462590
1253.4626271429,0.161423195526468,676350,466389
1256.95921132345,0.160995310686165,682044,470779
1261.61468078432,0.160848085849443,691186,477251
1265.10130079506,0.160010513775503,698040,482914
1268.58365044731,0.16035687974699,704897,487269
1272.06172974107,0.159942808887781,711161,492068
1275.53553867634,0.159686839409909,716742,496222
1279.00507725312,0.159577603114164,721922,499934
1282.4703454714,0.159397109596826,727224,503815
1285.9313433312,0.159542182947311,731933,506908
1289.38807083251,0.158819516615978,735512,510235
1292.84052797532,0.158898065245803,739150,512666
1297.43716138587,0.158741201528231,743939,516174
1300.87965435887,0.158270503724648,746813,518730
1304.31787697338,0.158644011806461,749738,520314
1307.7518292294,0.158670929627493,751995,521848
1311.18151112693,0.158758782853636,754103,523205
1314.60692266597,0.158605268673261,755613,524438
1318.02806384652,0.158768191463496,756757,525035
1321.44493466858,0.159029980969416,757770,525421
1324.85753513215,0.159273977299268,758610,525708
1329.4010263037,0.15989510610891,759031,525248
1332.80366259745,0.160319744419984,759098,524781
1336.20202853272,0.161029685436987,758623,523596
1339.59612410949,0.161811065554933,758333,522455
1342.98594932777,0.162853770715496,757438,520587
1346.37150418756,0.163972413521524,755787,518116
1349.75278868886,0.164797661262165,753733,515727
1353.12980283167,0.166148101649589,751304,512469
1356.50254661599,0.166880196233176,749075,510088
1359.87102004182,0.168071752224911,746225,506755
1364.35567516305,0.169353077419366,743466,503394
1367.71418441907,0.170157984120105,741297,500996
1371.06842331659,0.171434672590943,738413,497582
1374.41839185563,0.172205841967928,733700,493529
1377.76409003617,0.173590624678951,727678,487920
1381.10551785823,0.175228838413621,721663,482065
1384.44267532179,0.177318016076694,715773,475836
1387.77556242686,0.179697508279473,710216,469562
1391.10417917344,0.183176258207652,705066,462438
1395.53569205567,0.188393880204087,699436,453267
1398.85434463244,0.193291123300597,695735,445813
1402.16872685072,0.198997463439726,692026,437648
1405.47883871051,0.205465624115491,689087,429347
1408.7846802118,0.212795468055686,686455,420549
1412.08625135461,0.220415473647262,683871,411679
1415.38355213892,0.227206780986248,681481,403875
1418.67658256475,0.234186102380362,679613,396347
1421.96534263208,0.24044180953932,678206,389870
1425.24983234092,0.24561771872992,676426,384240
1429.62250917284,0.251637657061933,674506,377875
1432.89703471187,0.255723889335796,673655,373864
1436.16728989241,0.258819894972294,672092,370347
1439.43327471445,0.261403585839687,671301,367717
1442.69498917801,0.263326717410631,670567,365692
1445.95243328308,0.264416254322335,669698,364303
1449.20560702965,0.265146569890825,668551,363068
1452.45451041774,0.265574478572664,667024,361882
1455.69914344733,0.265252454520792,664417,360735
1460.01867804025,0.264956123642327,661687,359498
1463.25334690003,0.264566871274739,659441,358599
1466.48374540132,0.263244744786996,656034,357834
1469.70987354412,0.262381927334716,652937,356853
1472.93173132843,0.261274627079865,650068,356192
1476.14931875425,0.25976612810232,646790,355629
1479.36263582158,0.257921583584825,643002,355051
1482.57168253042,0.256395370238382,639234,354213
1485.77645888076,0.255184474386562,635363,353051
1488.97696487262,0.253955832688651,631350,351815
1493.23766341522,0.251589425470866,624728,350027
1496.42820523726,0.250132120735249,620216,348667
1499.61447670082,0.248359921259689,615040,347171
1502.79647780588,0.24663262689981,609906,345645
1505.97420855245,0.245167867583775,604497,343737
1509.14766894053,0.243892126591085,598833,341518
1512.31685897012,0.242332529308942,592771,339277
1515.48177864122,0.241283282311408,586612,336564
1518.64242795382,0.239231139405724,580287,334512
1522.84998425743,0.237545075698373,571460,330705
1526.00066940022,0.236616523383383,564851,327580
1529.14708418453,0.235454462101991,557842,324382
1532.28922861034,0.234698330307232,550082,320427
1535.42710267766,0.234323389252391,542604,316344
1538.5607063865,0.232970901062022,534727,312724
1541.69003973684,0.232284715034386,526226,308239
1544.81510272869,0.231935655749374,517750,303518
1547.93589536205,0.23135897521719,509678,299183
1551.05241763692,0.230333856923124,500791,294661
1555.2011378902,0.229720936206979,489374,288350
1558.30769599526,0.229308864490767,481068,283725
1561.40998374183,0.229119040347927,472438,278757
1564.5080011299,0.228501395595206,463264,273733
1567.60174815948,0.228485067040907,454086,268320
1570.69122483058,0.228005220767828,444593,263001
1573.77643114318,0.227466252274633,435073,257689
1576.85736709729,0.226976703390493,425906,252544
1579.93403269291,0.227047365710549,416145,246716
1584.0296107072,0.226202890890003,403815,239872
1587.09631213301,0.225627083154068,394588,234702
1590.15874320033,0.225070455528042,385479,229578
1593.21690390916,0.224597745375746,375870,224099
1596.27079425949,0.223676371912374,366956,219249
1599.32041425134,0.223143527792332,357979,214148
1602.36576388469,0.222509911857355,349061,209118
1605.40684315956,0.222114880355731,340080,203923
1608.44365207593,0.221155401041577,330878,198844
1611.47619063381,0.219578501676518,321941,194177
1615.51293259778,0.219444589264559,310387,187266
1618.53550698585,0.219491769186568,301549,181914
1621.55381101543,0.219692102770382,293144,176762
1624.56784468652,0.218519547021946,284332,171912
1627.57760799912,0.219873898678097,276314,166544
1630.58310095323,0.218690034358923,267590,161726
1633.58432354884,0.219517981988624,259235,156378
1636.58127578597,0.218400053539169,250736,151641
1639.5739576646,0.219460302245545,242501,146303
1643.55755738958,0.220683741233025,231932,139533
1646.5402750984,0.221944420727414,223971,134353
1649.51872244873,0.22346128747908,216039,129143
1652.49289944057,0.224761349192178,208007,123970
1655.46280607392,0.226553146513016,200517,119014
1658.42844234878,0.228678882766358,192900,113934
1661.38980826515,0.228669625235609,185074,109314
1664.34690382303,0.22951861961391,176973,104325
1667.29972902242,0.230944881483399,168574,99048
1670.24828386331,0.231231867387249,159729,93789
1674.17304753796,0.23183894344959,145422,85269
1677.11163820905,0.229803035039506,132902,78294
1680.04595852164,0.230957305655551,119667,70310
1682.97600847574,0.229706912379219,105848,62370
1685.90178807136,0.230359840116198,92133,54207
1688.82329730848,0.229882139335372,79025,46546
1691.74053618711,0.231869844968817,67382,39507
1694.65350470725,0.228476987765803,57088,33734
1697.56220286889,0.231288927976403,48491,28469
1701.43382430455,0.232016126591356,38866,22780
