***Scan Config Information***,,,,,,,***Reference Scan Information***,,,,,,,,
Scan Config Name:,herbario,,,,,,Scan Config Name:,Local New Reference,,,,,,,
Scan Config Type:,Slew,Num Section:,1,,,,Scan Config Type:,Slew,Num Section:,1,,,,,
Section Config Type:,Column,,,,,,Section Config Type:,Column,,,,,,,
Start Wavelength (nm):,900,,,,,,Start Wavelength (nm):,900,,,,,,,
End Wavelength (nm):,1700,,,,,,End Wavelength (nm):,1700,,,,,,,
Pattern Width (nm):,7.03,,,,,,Pattern Width (nm):,7.03,,,,,,,
Exposure (ms):,0.635,,,,,,Exposure (ms):,0.635,,,,,,,
Digital Resolution:,228,,,,,,Digital Resolution:,228,,,,,,,
Num Repeats:,20,,,,,,Num Repeats:,20,,,,,,,
PGA Gain:,64,(FixedPGA),,,,,PGA Gain:,64,(AutoPGA),,,,,,
System Temp (C):,41.64,,,,,,System Temp (C):,41.57,,,,,,,
Humidity (%):,24.46,,,,,,Humidity (%):,24.56,,,,,,,
Lamp Indicator:,1122,,,,,,Lamp Indicator:,1127,,,,,,,
Data Date-Time:,2023/11/10T14:23:04,,,,,,Data Date-Time:,2023/11/10T14:20:57,,,,,,,
Total Measurement Time in sec:,6.8094615,,,,,,,,,,,,,,
,,,,,,,,,,,,,,,
***General Information***,,,,,,,***Calibration Coefficients***,,,,,,,,
Model Name:,NIR-S-G1,,,,,,Shift Vector Coefficients:,-5.08535400046452,0.0413457073195706,-8.39863846568903E-05,,,,,
Serial Number:,B07R011,(95UB122GC0AB07R011),,,,,Pixel to Wavelength Coefficients:,1794.37724621797,-0.920219689099738,-0.000237242138379873,,,,,
GUI Version:,3.9.4,Revision:,526,,,,Versions (Cal/Ref/Cfg):,1,3,1,,,,,
TIVA Version:,2.4.7,,,,,,***Lamp Usage ***,,,,,,,,
DLPC Version:,2.3.1,,,,,,Total Time(hh:mm:ss):,1hr 23sec ,,,,,,,
UUID:,DE:67:0C:88:67:2B:47:21,,,,,,***Device/Error/Activation Status***,,,,,,,,
Main Board Version:,D,,,,,,Device Status:,0x00000001,Activation Status:,Activated,,,,,
Detector Board Version:,B,,,,,,Error status:,0x00000000,Error Code:,0x00000000000000000000000000000000,,,,,
,,,,,,,,,Error Details:,Not found,,,,,
***Scan Data***,,,,,,,,,,,,,,,
Wavelength (nm),Absorbance (AU),Reference Signal (unitless),Sample Signal (unitless)
901.81429527209,0.218310090279485,86742,52471
905.716563509274,0.22111842243101,94273,56659
909.614561387966,0.218231544203265,102068,61753
913.508288908168,0.218096806353576,110873,67101
917.397746069878,0.215190823716493,121910,74276
921.282932873098,0.214837947652527,135431,82581
925.163849317827,0.21449093951607,151993,92754
929.040495404065,0.21222483429875,170436,104553
932.912871131812,0.211946734629962,189806,116510
938.069395988934,0.209318025504526,213892,132092
941.931807546869,0.21067083027533,230143,141686
945.789948746314,0.208335822090224,244380,151262
949.643819587268,0.208385050322444,256922,159007
953.493420069731,0.207018845293158,268735,166842
957.338750193702,0.205492912566308,279885,174376
961.179809959184,0.20572081957234,290981,181194
965.016599366174,0.205421845340315,301220,187699
968.849118414673,0.205127975880621,311349,194142
973.952501032798,0.204137651518386,324458,202778
977.775055911486,0.203528843809653,334343,209249
981.593340431682,0.203211514402682,342882,214750
985.407354593388,0.202213017284061,350770,220196
989.217098396603,0.201940356286147,358072,224921
993.022571841327,0.201691830039396,364529,229108
996.823774927561,0.201501409858901,370058,232685
1000.6207076553,0.200849217036049,375626,236541
1004.41337002455,0.200641679320762,380140,239498
1008.20176203532,0.200427647871249,383619,241809
1013.24630860312,0.199755258028035,387117,244392
1017.02473644407,0.199228096742952,389030,245898
1020.79889392653,0.198896007630352,391066,247374
1024.5687810505,0.198330708716831,392234,248436
1028.33439781597,0.198212432326653,392667,248778
1032.09574422296,0.197935315243482,392732,248978
1035.85282027145,0.197292376574717,393200,249644
1039.60562596146,0.197596856171928,393077,249391
1043.35416129297,0.197488399497062,393138,249492
1048.34556562178,0.197050448200185,392556,249374
1052.08413678348,0.196802785320607,392403,249419
1055.81843758669,0.196778978388225,392070,249221
1059.54846803141,0.196378688309677,392031,249426
1063.27422811764,0.196387058124078,392114,249474
1066.99571784538,0.195748348770357,391792,249636
1070.71293721462,0.196116963484172,392742,250029
1074.42588622538,0.196401014650916,393755,250510
1078.13456487764,0.195662733140252,394795,251599
1081.83897317142,0.195469695118863,396566,252840
1086.77154144991,0.195681740690608,398955,254239
1090.46598557387,0.195556033006072,401086,255671
1094.15615933934,0.1951287985765,403370,257380
1097.84206274632,0.195048058458871,406034,259128
1101.52369579481,0.195008001478438,408975,261029
1105.20105848481,0.194931263734157,412183,263123
1108.87415081632,0.19430852615544,415636,265708
1112.54297278934,0.195046059638473,419177,267517
1116.20752440387,0.194967053625508,422939,269967
1121.08695044336,0.195152560242541,428646,273493
1124.74153788807,0.195441714999817,432959,276061
1128.3918549743,0.195080064859327,437306,279065
1132.03790170203,0.195384248397003,442160,281965
1135.67967807127,0.195907153158358,446993,284704
1139.31718408202,0.195800782886237,452123,288042
1142.95041973428,0.196443705995032,457504,291039
1146.57938502805,0.196668106545116,462863,294296
1150.20407996333,0.196703123806421,468028,297556
1153.82450454012,0.197199260010868,473791,300876
1158.6450945293,0.197818965735653,481936,305612
1162.25555493627,0.198572663194073,488242,309074
1165.86174498476,0.198166037041681,494412,313273
1169.46366467475,0.19883472171307,501057,316995
1173.06131400625,0.198959827271116,507891,321226
1176.65469297927,0.199127951363223,515237,325746
1180.24380159379,0.199725522584964,522518,329895
1183.82863984982,0.19969913125248,530486,334946
1187.40920774736,0.1997681921439,538451,339921
1192.17665549754,0.200054274147654,548971,346334
1195.74725922527,0.200088644696235,557405,351627
1199.3135925945,0.199972996484909,565927,357098
1202.87565560525,0.199800406763568,574000,362336
1206.43344825751,0.199570925358617,582280,367757
1209.98697055127,0.199674275132426,591300,373365
1213.53622248654,0.19939959366693,599851,379004
1217.08120406333,0.199365933827315,608591,384556
1220.62191528162,0.19867763959559,617035,390510
1224.15835614142,0.19804540284238,625380,396368
1228.86696784128,0.197549330396555,636032,403580
1232.39344453127,0.197457377045338,643889,408652
1235.91565086277,0.196861939897907,651255,413894
1239.43358683578,0.196537202067261,658059,418531
1242.94725245029,0.196406714240767,664966,423051
1246.45664770632,0.19630462061015,671710,427442
1249.96177260386,0.195864031357807,677120,431322
1253.4626271429,0.195583418083761,682558,435067
1256.95921132345,0.195550149965713,688252,438730
1261.61468078432,0.195277418880398,697656,445004
1265.10130079506,0.195356015614299,704840,449505
1268.58365044731,0.195183247292397,711229,453760
1272.06172974107,0.195008614787315,717710,458079
1275.53553867634,0.195044198837327,723499,461736
1279.00507725312,0.194824607671107,728480,465150
1282.4703454714,0.194736304707,733867,468685
1285.9313433312,0.194664163385497,738293,471590
1289.38807083251,0.19447600476864,742311,474362
1292.84052797532,0.194323145504751,745862,476799
1297.43716138587,0.194299602533168,750630,479873
1300.87965435887,0.194396414808908,753975,481904
1304.31787697338,0.194222951588298,756195,483516
1307.7518292294,0.194416700771266,758676,484886
1311.18151112693,0.194374952282899,760651,486195
1314.60692266597,0.194555325417459,762529,487193
1318.02806384652,0.19495617542302,763924,487634
1321.44493466858,0.194726833263322,764147,488034
1324.85753513215,0.19494011237142,765232,488487
1329.4010263037,0.195292859588518,765766,488431
1332.80366259745,0.195647788548678,765584,487916
1336.20202853272,0.196348543918558,765519,487088
1339.59612410949,0.19653387323222,764753,486393
1342.98594932777,0.197523928334562,763936,484767
1346.37150418756,0.198114919982259,762109,482950
1349.75278868886,0.198600047242131,759817,480960
1353.12980283167,0.199635877463555,757237,478185
1356.50254661599,0.200235614175834,754947,476081
1359.87102004182,0.200857764551977,751875,473465
1364.35567516305,0.201648236489406,748962,470773
1367.71418441907,0.201967708616826,747047,469224
1371.06842331659,0.202705756213848,744278,466691
1374.41839185563,0.203353311027542,739380,462929
1377.76409003617,0.204148999399013,733409,458350
1381.10551785823,0.205100568903934,727253,453508
1384.44267532179,0.206004146425585,721313,448869
1387.77556242686,0.207668373252893,716120,443933
1391.10417917344,0.208809690211911,710833,439499
1395.53569205567,0.21163070152646,705216,433203
1398.85434463244,0.213879256814776,701104,428453
1402.16872685072,0.216807906752269,697983,423679
1405.47883871051,0.220025187882273,694594,418510
1408.7846802118,0.223743462893171,692282,413561
1412.08625135461,0.227281699870893,689382,408487
1415.38355213892,0.231056442896206,687106,403615
1418.67658256475,0.234595210570558,685284,399278
1421.96534263208,0.237557267689645,683606,395593
1425.24983234092,0.240558963268468,682184,392051
1429.62250917284,0.243727670572166,680363,388162
1432.89703471187,0.245618839917671,679593,386038
1436.16728989241,0.247290368196461,678218,383777
1439.43327471445,0.247901523218391,677145,382631
1442.69498917801,0.248964096537098,676164,381143
1445.95243328308,0.249387728282268,675540,380420
1449.20560702965,0.249818653621209,674314,379353
1452.45451041774,0.250273683897648,672350,377852
1455.69914344733,0.250521980266919,670144,376397
1460.01867804025,0.250550349313198,667533,374906
1463.25334690003,0.250053537318192,664769,373781
1466.48374540132,0.250328523227804,661823,371889
1469.70987354412,0.249846559412461,658698,370544
1472.93173132843,0.249589146165114,655506,368967
1476.14931875425,0.248936698140297,652301,367715
1479.36263582158,0.248576683193593,648664,365968
1482.57168253042,0.247989784256469,644701,364224
1485.77645888076,0.247700502754422,640787,362254
1488.97696487262,0.247006623639487,636601,360463
1493.23766341522,0.246185567457096,630225,357528
1496.42820523726,0.245573946588931,625418,355301
1499.61447670082,0.244962220053872,620537,353025
1502.79647780588,0.24419661689545,614831,350396
1505.97420855245,0.243023437645379,609326,348198
1509.14766894053,0.242174170599818,603551,345573
1512.31685897012,0.241607239988851,597653,342643
1515.48177864122,0.240877087059302,590995,339396
1518.64242795382,0.240065122229306,585101,336640
1522.84998425743,0.239019839363462,575996,332200
1526.00066940022,0.238585832460172,569275,328652
1529.14708418453,0.238158481569848,562020,324783
1532.28922861034,0.237939510603478,554450,320570
1535.42710267766,0.236999161354848,546665,316754
1538.5607063865,0.237158359521673,539010,312204
1541.69003973684,0.236711077923667,530425,307548
1544.81510272869,0.236184797351382,521931,302990
1547.93589536205,0.236125431934588,513284,298011
1551.05241763692,0.235797326637946,504680,293237
1555.2011378902,0.234960036083297,492826,286902
1558.30769599526,0.234851208900741,484322,282022
1561.40998374183,0.234740220166904,475722,277085
1564.5080011299,0.234307207813414,466540,272008
1567.60174815948,0.234255331908402,457136,266557
1570.69122483058,0.233962923810852,447656,261205
1573.77643114318,0.233635795245567,438246,255907
1576.85736709729,0.233535566615686,428872,250491
1579.93403269291,0.232860199827852,418889,245041
1584.0296107072,0.232269521658344,406257,237975
1587.09631213301,0.232444447937028,396961,232436
1590.15874320033,0.231616320109225,388016,227632
1593.21690390916,0.231320474835189,378090,221960
1596.27079425949,0.230568750904977,369364,217213
1599.32041425134,0.229369334004561,360114,212359
1602.36576388469,0.229077401252405,351087,207175
1605.40684315956,0.228871829313235,342057,201942
1608.44365207593,0.228786310513513,332904,196577
1611.47619063381,0.227871374794219,324090,191776
1615.51293259778,0.227058077306328,311995,184965
1618.53550698585,0.226718723745768,303324,179965
1621.55381101543,0.22710864207545,294809,174756
1624.56784468652,0.22689743111138,286014,169625
1627.57760799912,0.226788480814552,277667,164716
1630.58310095323,0.22565138669316,269032,160012
1633.58432354884,0.225874054617341,260574,154902
1636.58127578597,0.225736357503575,252031,149871
1639.5739576646,0.226323443352713,244119,144970
1643.55755738958,0.226488291055611,233043,138340
1646.5402750984,0.227053869938809,225203,133512
1649.51872244873,0.22734587729611,216969,128544
1652.49289944057,0.227640014336187,208963,123717
1655.46280607392,0.229853452645478,201595,118748
1658.42844234878,0.230028158420087,193952,114200
1661.38980826515,0.231155660313293,186162,109329
1664.34690382303,0.232201694627873,178138,104365
1667.29972902242,0.232841878848968,169541,99182
1670.24828386331,0.233901017392649,160700,93781
1674.17304753796,0.23466913196681,146117,85120
1677.11163820905,0.235898628552591,133801,77725
1680.04595852164,0.237077425296664,120428,69767
1682.97600847574,0.236624916318576,106713,61886
1685.90178807136,0.239568393360945,93222,53697
1688.82329730848,0.238456247831551,80121,46269
1691.74053618711,0.241672184502281,68334,39171
1694.65350470725,0.240469980680824,57413,33002
1697.56220286889,0.241741867854827,48929,28043
1701.43382430455,0.241481028838621,39119,22434
