***Scan Config Information***,,,,,,,***Reference Scan Information***,,,,,,,,
Scan Config Name:,herbario,,,,,,Scan Config Name:,Local New Reference,,,,,,,
Scan Config Type:,Slew,Num Section:,1,,,,Scan Config Type:,Slew,Num Section:,1,,,,,
Section Config Type:,Column,,,,,,Section Config Type:,Column,,,,,,,
Start Wavelength (nm):,900,,,,,,Start Wavelength (nm):,900,,,,,,,
End Wavelength (nm):,1700,,,,,,End Wavelength (nm):,1700,,,,,,,
Pattern Width (nm):,7.03,,,,,,Pattern Width (nm):,7.03,,,,,,,
Exposure (ms):,0.635,,,,,,Exposure (ms):,0.635,,,,,,,
Digital Resolution:,228,,,,,,Digital Resolution:,228,,,,,,,
Num Repeats:,20,,,,,,Num Repeats:,20,,,,,,,
PGA Gain:,64,(FixedPGA),,,,,PGA Gain:,64,(AutoPGA),,,,,,
System Temp (C):,41,,,,,,System Temp (C):,40.71,,,,,,,
Humidity (%):,28.8,,,,,,Humidity (%):,29.13,,,,,,,
Lamp Indicator:,1113,,,,,,Lamp Indicator:,1120,,,,,,,
Data Date-Time:,2023/11/13T09:58:53,,,,,,Data Date-Time:,2023/11/13T09:56:18,,,,,,,
Total Measurement Time in sec:,6.7626555,,,,,,,,,,,,,,
,,,,,,,,,,,,,,,
***General Information***,,,,,,,***Calibration Coefficients***,,,,,,,,
Model Name:,NIR-S-G1,,,,,,Shift Vector Coefficients:,-5.08535400046452,0.0413457073195706,-8.39863846568903E-05,,,,,
Serial Number:,B07R011,(95UB122GC0AB07R011),,,,,Pixel to Wavelength Coefficients:,1794.37724621797,-0.920219689099738,-0.000237242138379873,,,,,
GUI Version:,3.9.4,Revision:,526,,,,Versions (Cal/Ref/Cfg):,1,3,1,,,,,
TIVA Version:,2.4.7,,,,,,***Lamp Usage ***,,,,,,,,
DLPC Version:,2.3.1,,,,,,Total Time(hh:mm:ss):,1hr 50min 27sec ,,,,,,,
UUID:,DE:67:0C:88:67:2B:47:21,,,,,,***Device/Error/Activation Status***,,,,,,,,
Main Board Version:,D,,,,,,Device Status:,0x00000001,Activation Status:,Activated,,,,,
Detector Board Version:,B,,,,,,Error status:,0x00000000,Error Code:,0x00000000000000000000000000000000,,,,,
,,,,,,,,,Error Details:,Not found,,,,,
***Scan Data***,,,,,,,,,,,,,,,
Wavelength (nm),Absorbance (AU),Reference Signal (unitless),Sample Signal (unitless)
901.81429527209,0.527108020426088,86128,25588
905.716563509274,0.521372118256074,93329,28096
909.614561387966,0.518995609089367,100950,30557
913.508288908168,0.513021675566164,109832,33706
917.397746069878,0.508090028322316,120886,37522
921.282932873098,0.504548601142941,134230,42005
925.163849317827,0.496410519022495,150311,47927
929.040495404065,0.493997347628923,168996,54185
932.912871131812,0.488333139427246,188300,61167
938.069395988934,0.482333394501155,212244,69904
941.931807546869,0.478581261682191,228238,75824
945.789948746314,0.472868335440965,242358,81581
949.643819587268,0.469063186134383,254918,86564
953.493420069731,0.464005517621594,266334,91500
957.338750193702,0.458269764648112,277596,96637
961.179809959184,0.455139664706948,288690,101226
965.016599366174,0.450917869029312,298539,105702
968.849118414673,0.446583500143067,308661,110382
973.952501032798,0.441703987391711,321612,116313
977.775055911486,0.437228279636236,331199,121021
981.593340431682,0.433380805876796,340186,125411
985.407354593388,0.429708400344522,347876,129335
989.217098396603,0.426528836180149,355354,133086
993.022571841327,0.423213913776579,361444,136404
996.823774927561,0.420298204016492,366927,139406
1000.6207076553,0.416005979188631,372732,143018
1004.41337002455,0.411690924609392,377134,146152
1008.20176203532,0.408074651285862,380435,148664
1013.24630860312,0.403868291021538,383806,151441
1017.02473644407,0.400278551246363,386390,153726
1020.79889392653,0.397154702226874,387873,155430
1024.5687810505,0.394121259826354,389220,157063
1028.33439781597,0.390801955903434,389970,158573
1032.09574422296,0.387454729762228,389736,159704
1035.85282027145,0.385026775241817,390553,160936
1039.60562596146,0.381357305448928,390145,162132
1043.35416129297,0.378519875136128,390148,163196
1048.34556562178,0.374773895266218,389613,164384
1052.08413678348,0.372631304803251,389705,165236
1055.81843758669,0.368981282869429,388988,166324
1059.54846803141,0.366475611038718,388922,167258
1063.27422811764,0.364992522783408,389209,167954
1066.99571784538,0.362079282243715,388796,168905
1070.71293721462,0.360214047571758,389981,170149
1074.42588622538,0.358037699685306,390880,171398
1078.13456487764,0.355735271941355,392039,172820
1081.83897317142,0.353531996067231,393558,174372
1086.77154144991,0.350842508457615,395518,176329
1090.46598557387,0.349355928586797,397875,177988
1094.15615933934,0.346582081817117,400455,180290
1097.84206274632,0.345378231875725,402813,181855
1101.52369579481,0.342941122974948,405517,184106
1105.20105848481,0.341509645701936,408828,186222
1108.87415081632,0.339859813657754,412424,188575
1112.54297278934,0.33892727971625,415843,190547
1116.20752440387,0.337703188983433,419630,192825
1121.08695044336,0.335276016533988,425134,196449
1124.74153788807,0.334425304072707,429287,198757
1128.3918549743,0.334149377497559,434294,201203
1132.03790170203,0.332417775335552,438807,204106
1135.67967807127,0.331698266224147,443601,206678
1139.31718408202,0.330630661363868,448327,209394
1142.95041973428,0.329910669296572,453796,212300
1146.57938502805,0.32921358906347,458858,215013
1150.20407996333,0.328686942760083,464106,217736
1153.82450454012,0.327909535820997,469908,220853
1158.6450945293,0.327278648811522,478009,224987
1162.25555493627,0.326615258433502,483635,227983
1165.86174498476,0.326370267537836,490274,231243
1169.46366467475,0.326163893704846,497011,234532
1173.06131400625,0.3255421566675,503662,238011
1176.65469297927,0.325775271751391,511165,241427
1180.24380159379,0.324540357745719,517749,245233
1183.82863984982,0.324495215146656,525810,249077
1187.40920774736,0.32373303285201,533821,253316
1192.17665549754,0.323017944997956,544068,258604
1195.74725922527,0.322470048035978,552308,262852
1199.3135925945,0.321709777892715,560783,267353
1202.87565560525,0.320580921622491,569158,272052
1206.43344825751,0.319572464895086,577410,276638
1209.98697055127,0.318565302861659,586345,281571
1213.53622248654,0.317024400445675,594631,286565
1217.08120406333,0.315195036101723,603209,291926
1220.62191528162,0.313810335047349,611641,296952
1224.15835614142,0.312573555490366,620056,301896
1228.86696784128,0.310730856633225,630573,308322
1232.39344453127,0.309548325196712,638416,313008
1235.91565086277,0.308617676503406,645860,317337
1239.43358683578,0.30734710306507,652752,321663
1242.94725245029,0.30627042597444,659745,325916
1246.45664770632,0.305250157463471,665962,329761
1249.96177260386,0.304580206540376,671511,333022
1253.4626271429,0.304126891291718,677081,336135
1256.95921132345,0.303589394153487,682959,339473
1261.61468078432,0.302504728189487,692048,344851
1265.10130079506,0.301662914069411,699038,349010
1268.58365044731,0.301217138495162,705632,352664
1272.06172974107,0.300474792734326,712153,356532
1275.53553867634,0.299580062456922,717367,359883
1279.00507725312,0.299213561106867,722934,362982
1282.4703454714,0.298752621573178,728086,365957
1285.9313433312,0.2983909589668,732883,368675
1289.38807083251,0.297695359107013,736523,371100
1292.84052797532,0.297365036645621,739977,373124
1297.43716138587,0.29664799816011,745193,376375
1300.87965435887,0.295997603815687,748097,378408
1304.31787697338,0.296151358402318,751097,379791
1307.7518292294,0.295226072538785,753100,381616
1311.18151112693,0.294953611447423,755160,382900
1314.60692266597,0.294850698806522,757010,383929
1318.02806384652,0.29466937601835,758050,384617
1321.44493466858,0.294680022249987,758855,385016
1324.85753513215,0.29486788338818,759696,385276
1329.4010263037,0.295205669162509,760295,385280
1332.80366259745,0.29537138701227,760293,385132
1336.20202853272,0.296104369694614,759760,384213
1339.59612410949,0.296678947329106,759558,383603
1342.98594932777,0.29742641083182,758514,382417
1346.37150418756,0.298460332067564,756773,380632
1349.75278868886,0.299721396672097,754547,378412
1353.12980283167,0.300664325538759,751477,376055
1356.50254661599,0.301681746699092,748873,373875
1359.87102004182,0.303140943814026,745951,371167
1364.35567516305,0.304339942071298,743237,368797
1367.71418441907,0.305387091404431,741403,367001
1371.06842331659,0.305980291608436,738678,365153
1374.41839185563,0.307322112607411,734026,361734
1377.76409003617,0.308825154631548,728151,357599
1381.10551785823,0.310080126265177,721716,353416
1384.44267532179,0.311853688871541,716164,349268
1387.77556242686,0.313720801398816,710619,345077
1391.10417917344,0.316121352144749,705633,340767
1395.53569205567,0.32035495637802,699717,334632
1398.85434463244,0.324159282950019,696092,329995
1402.16872685072,0.328751475909295,692568,324871
1405.47883871051,0.334445263496383,689735,319328
1408.7846802118,0.340531070950217,686950,313613
1412.08625135461,0.347270394244126,684672,307760
1415.38355213892,0.353709850801243,682070,302078
1418.67658256475,0.360881666136104,680416,296410
1421.96534263208,0.366507609584456,678937,291959
1425.24983234092,0.372606135310762,677270,287181
1429.62250917284,0.379062167757894,675488,282199
1432.89703471187,0.383855204782173,674603,278736
1436.16728989241,0.38797229582821,673259,275556
1439.43327471445,0.39118123196613,672229,273109
1442.69498917801,0.393929151522189,671688,271168
1445.95243328308,0.395867200522097,670537,269498
1449.20560702965,0.39794195361819,669883,267952
1452.45451041774,0.399594030216987,667801,266105
1455.69914344733,0.399651950459007,665458,265136
1460.01867804025,0.400658250932851,662720,263434
1463.25334690003,0.400401978937724,660197,262586
1466.48374540132,0.400361457396995,657365,261484
1469.70987354412,0.399644076753243,654099,260615
1472.93173132843,0.398421237713773,651041,260128
1476.14931875425,0.39767795731617,647804,259278
1479.36263582158,0.396750669916682,644348,258446
1482.57168253042,0.395726112642662,640519,257517
1485.77645888076,0.394530861890029,636298,256525
1488.97696487262,0.393487769998826,632255,255508
1493.23766341522,0.392585043049261,626038,253522
1496.42820523726,0.390800447094598,621255,252621
1499.61447670082,0.390190188377518,616225,250928
1502.79647780588,0.389080400558543,610956,249419
1505.97420855245,0.387488867898166,605546,248118
1509.14766894053,0.386466080460366,599549,246240
1512.31685897012,0.385409294693336,593766,244459
1515.48177864122,0.384776951665112,587462,242216
1518.64242795382,0.383684213267355,581123,240206
1522.84998425743,0.382413017921287,572282,237245
1526.00066940022,0.381582985809758,565517,234889
1529.14708418453,0.38132512628122,558651,232175
1532.28922861034,0.380874157028533,550990,229229
1535.42710267766,0.38015927764511,543211,226365
1538.5607063865,0.380169059714817,535352,223085
1541.69003973684,0.380267255263207,527264,219665
1544.81510272869,0.379664553541399,518582,216348
1547.93589536205,0.380212093128346,510085,212535
1551.05241763692,0.379594362263838,501468,209242
1555.2011378902,0.379615587379575,489914,204411
1558.30769599526,0.38034528525181,481531,200576
1561.40998374183,0.380360177666418,472470,196795
1564.5080011299,0.380104131770397,463796,193296
1567.60174815948,0.380167476080262,454459,189377
1570.69122483058,0.380031086459774,444917,185459
1573.77643114318,0.380632891038154,435485,181276
1576.85736709729,0.38016638016031,425932,177490
1579.93403269291,0.380119285633174,416511,173583
1584.0296107072,0.379412488081137,403609,168480
1587.09631213301,0.379751690352106,394440,164524
1590.15874320033,0.378672885306437,385292,161108
1593.21690390916,0.379424376104188,375634,156798
1596.27079425949,0.378605064359648,366997,153482
1599.32041425134,0.377856646687756,358106,150022
1602.36576388469,0.377049743407943,348609,146315
1605.40684315956,0.377609651331016,339893,142473
1608.44365207593,0.376921906209628,330697,138838
1611.47619063381,0.377050505261247,321915,135111
1615.51293259778,0.376259624364305,309897,130304
1618.53550698585,0.376966465578094,301626,126620
1621.55381101543,0.376855554789755,292754,122927
1624.56784468652,0.377081397759168,284345,119334
1627.57760799912,0.376806282419722,275771,115809
1630.58310095323,0.378255519873689,267339,111894
1633.58432354884,0.37741407909924,258640,108463
1636.58127578597,0.379248259335246,250472,104595
1639.5739576646,0.37943999908585,242485,101215
1643.55755738958,0.382366928820043,231573,96011
1646.5402750984,0.384440550139404,223649,92284
1649.51872244873,0.386800394942871,215825,88573
1652.49289944057,0.389658086563579,207554,84620
1655.46280607392,0.391314511446949,200062,81255
1658.42844234878,0.394401987394669,192607,77673
1661.38980826515,0.397025458238437,184768,74063
1664.34690382303,0.396877224680864,176520,70781
1667.29972902242,0.398679502437575,167813,67011
1670.24828386331,0.398048074622493,158762,63489
1674.17304753796,0.399334620672076,144102,57456
1677.11163820905,0.399999954283336,131869,52498
1680.04595852164,0.403408349542197,118123,46658
1682.97600847574,0.406970990579774,104641,40995
1685.90178807136,0.409340460434312,90818,35386
1688.82329730848,0.409283855498726,77942,30373
1691.74053618711,0.410729368674122,66232,25724
1694.65350470725,0.414235284607481,56088,21609
1697.56220286889,0.415528741133671,47417,18214
1701.43382430455,0.423659435136141,38138,14378
