***Scan Config Information***,,,,,,,***Reference Scan Information***,,,,,,,,
Scan Config Name:,herbario,,,,,,Scan Config Name:,Local New Reference,,,,,,,
Scan Config Type:,Slew,Num Section:,1,,,,Scan Config Type:,Slew,Num Section:,1,,,,,
Section Config Type:,Column,,,,,,Section Config Type:,Column,,,,,,,
Start Wavelength (nm):,900,,,,,,Start Wavelength (nm):,900,,,,,,,
End Wavelength (nm):,1700,,,,,,End Wavelength (nm):,1700,,,,,,,
Pattern Width (nm):,7.03,,,,,,Pattern Width (nm):,7.03,,,,,,,
Exposure (ms):,0.635,,,,,,Exposure (ms):,0.635,,,,,,,
Digital Resolution:,228,,,,,,Digital Resolution:,228,,,,,,,
Num Repeats:,20,,,,,,Num Repeats:,20,,,,,,,
PGA Gain:,64,(FixedPGA),,,,,PGA Gain:,64,(AutoPGA),,,,,,
System Temp (C):,41.26,,,,,,System Temp (C):,40.74,,,,,,,
Humidity (%):,19.82,,,,,,Humidity (%):,20.05,,,,,,,
Lamp Indicator:,1123,,,,,,Lamp Indicator:,1120,,,,,,,
Data Date-Time:,2023/11/10T17:53:03,,,,,,Data Date-Time:,2023/11/10T17:49:25,,,,,,,
Total Measurement Time in sec:,6.7610903,,,,,,,,,,,,,,
,,,,,,,,,,,,,,,
***General Information***,,,,,,,***Calibration Coefficients***,,,,,,,,
Model Name:,NIR-S-G1,,,,,,Shift Vector Coefficients:,-5.08535400046452,0.0413457073195706,-8.39863846568903E-05,,,,,
Serial Number:,B07R011,(95UB122GC0AB07R011),,,,,Pixel to Wavelength Coefficients:,1794.37724621797,-0.920219689099738,-0.000237242138379873,,,,,
GUI Version:,3.9.4,Revision:,526,,,,Versions (Cal/Ref/Cfg):,1,3,1,,,,,
TIVA Version:,2.4.7,,,,,,***Lamp Usage ***,,,,,,,,
DLPC Version:,2.3.1,,,,,,Total Time(hh:mm:ss):,1hr 28min 19sec ,,,,,,,
UUID:,DE:67:0C:88:67:2B:47:21,,,,,,***Device/Error/Activation Status***,,,,,,,,
Main Board Version:,D,,,,,,Device Status:,0x00000001,Activation Status:,Activated,,,,,
Detector Board Version:,B,,,,,,Error status:,0x00000000,Error Code:,0x00000000000000000000000000000000,,,,,
,,,,,,,,,Error Details:,Not found,,,,,
***Scan Data***,,,,,,,,,,,,,,,
Wavelength (nm),Absorbance (AU),Reference Signal (unitless),Sample Signal (unitless)
901.81429527209,0.227185250300221,86714,51393
905.716563509274,0.226424973941678,94322,56000
909.614561387966,0.226298921676192,102015,60585
913.508288908168,0.223418514057621,110865,66279
917.397746069878,0.221797757782724,122069,73250
921.282932873098,0.219727091303631,135314,81586
925.163849317827,0.219925714816109,151803,91486
929.040495404065,0.217950406603518,170425,103177
932.912871131812,0.217649862914442,189806,114990
938.069395988934,0.215996789542551,213969,130123
941.931807546869,0.215680305216614,230064,140013
945.789948746314,0.213598780890168,244362,149429
949.643819587268,0.213254578026811,256881,157209
953.493420069731,0.212011369669009,268603,164854
957.338750193702,0.211549136382028,279940,171995
961.179809959184,0.211006564660231,290976,178999
965.016599366174,0.210089389012292,301164,185658
968.849118414673,0.209428980236252,311325,192214
973.952501032798,0.207683286273984,324406,201097
977.775055911486,0.208392876766076,334591,207072
981.593340431682,0.207121269755607,342796,212772
985.407354593388,0.206417607370956,350914,218164
989.217098396603,0.206222811213334,358326,222872
993.022571841327,0.205722231001704,364642,227062
996.823774927561,0.205024318196994,370263,230933
1000.6207076553,0.204130150683478,375868,234912
1004.41337002455,0.203843394807759,380492,237959
1008.20176203532,0.20334619670466,384008,240433
1013.24630860312,0.201842376516802,387360,243373
1017.02473644407,0.201115627346143,389555,245162
1020.79889392653,0.200523820215245,391300,246596
1024.5687810505,0.199901132734114,392907,247964
1028.33439781597,0.199268049178036,393284,248564
1032.09574422296,0.199315499433134,393702,248801
1035.85282027145,0.198446584321396,393880,249412
1039.60562596146,0.198316137314662,393978,249549
1043.35416129297,0.197602309726923,393911,249917
1048.34556562178,0.196781809113598,393361,250040
1052.08413678348,0.196379068191122,393207,250174
1055.81843758669,0.195964376864763,393028,250299
1059.54846803141,0.195014320733401,392658,250611
1063.27422811764,0.194500358908734,392577,250856
1066.99571784538,0.194194983592229,392961,251278
1070.71293721462,0.193151931383861,393424,252179
1074.42588622538,0.192620176712871,394373,253097
1078.13456487764,0.191993832022676,395692,254310
1081.83897317142,0.191687226288022,397532,255673
1086.77154144991,0.190753273989079,399539,257517
1090.46598557387,0.189852874739543,401853,259546
1094.15615933934,0.189416543943449,404396,261451
1097.84206274632,0.189190249079975,406917,263218
1101.52369579481,0.188685453086342,409670,265307
1105.20105848481,0.188014263219424,413197,268005
1108.87415081632,0.187950190142246,416754,270352
1112.54297278934,0.18711964199543,420155,273080
1116.20752440387,0.187513569029669,423858,275237
1121.08695044336,0.187568608740543,429712,279003
1124.74153788807,0.187134534105797,433914,282013
1128.3918549743,0.186993963389293,438631,285171
1132.03790170203,0.187173754574925,443372,288134
1135.67967807127,0.187054212860856,448085,291277
1139.31718408202,0.186948591918934,452936,294502
1142.95041973428,0.187416263155115,458280,297656
1146.57938502805,0.187524694048764,463458,300944
1150.20407996333,0.188366931551355,469070,303998
1153.82450454012,0.188586552826629,474763,307532
1158.6450945293,0.189141518827563,482901,312404
1162.25555493627,0.189201775887247,488920,316254
1165.86174498476,0.1896300350859,495255,320036
1169.46366467475,0.190026613994413,502185,324218
1173.06131400625,0.189941156080486,508914,328627
1176.65469297927,0.190637894346706,516179,332784
1180.24380159379,0.190644210284768,523545,337528
1183.82863984982,0.19098063408045,531540,342417
1187.40920774736,0.190637103404004,539280,347678
1192.17665549754,0.191156919060117,550034,354187
1195.74725922527,0.191503425315329,558202,359160
1199.3135925945,0.190992672243785,566843,365149
1202.87565560525,0.190889066045491,575371,370731
1206.43344825751,0.190887019418173,583555,376006
1209.98697055127,0.190431759991737,592731,382319
1213.53622248654,0.18976461904874,601140,388339
1217.08120406333,0.189117827236803,609657,394428
1220.62191528162,0.188267172597071,618229,400758
1224.15835614142,0.187521524703821,626698,406946
1228.86696784128,0.186780539452656,637572,414714
1232.39344453127,0.185988075623409,645301,420508
1235.91565086277,0.185810939276749,653042,425726
1239.43358683578,0.185473303436406,660068,430641
1242.94725245029,0.184757059529129,667089,435940
1246.45664770632,0.184372512281496,673721,440664
1249.96177260386,0.184013542827317,679368,444725
1253.4626271429,0.183531568250758,684857,448816
1256.95921132345,0.182995216488894,690338,452967
1261.61468078432,0.182795834829144,699836,459410
1265.10130079506,0.18248069188493,707110,464522
1268.58365044731,0.182369247058485,713996,469166
1272.06172974107,0.181863321485329,720116,473739
1275.53553867634,0.181680639714548,725979,477797
1279.00507725312,0.181194900813159,731161,481746
1282.4703454714,0.181003277535277,736488,485470
1285.9313433312,0.180763512390166,741267,488890
1289.38807083251,0.180766595390362,745357,491584
1292.84052797532,0.180227651713697,748535,494293
1297.43716138587,0.179977584547402,753928,498141
1300.87965435887,0.179781386840914,756840,500291
1304.31787697338,0.179654581686518,759550,502229
1307.7518292294,0.179398212562068,761638,503907
1311.18151112693,0.179664042295034,764016,505171
1314.60692266597,0.17966304305805,765755,506322
1318.02806384652,0.179637312780296,766800,507043
1321.44493466858,0.180009262215836,767902,507337
1324.85753513215,0.180462433420082,768684,507324
1329.4010263037,0.180719221511846,768984,507222
1332.80366259745,0.181317344260305,769183,506655
1336.20202853272,0.181711169928829,768650,505845
1339.59612410949,0.18270254885238,768611,504666
1342.98594932777,0.183563175767287,767372,502855
1346.37150418756,0.184562603047346,765570,500521
1349.75278868886,0.185774201144607,764000,498103
1353.12980283167,0.186616970787147,761307,495385
1356.50254661599,0.187738994211638,758896,492542
1359.87102004182,0.188555745369598,756152,489839
1364.35567516305,0.18990638708943,753117,486358
1367.71418441907,0.191161738408782,751278,483770
1371.06842331659,0.192225415525766,748204,480612
1374.41839185563,0.193606234922343,743562,476114
1377.76409003617,0.195066462345538,737440,470609
1381.10551785823,0.196683752143029,731234,464914
1384.44267532179,0.198947610901797,725163,458657
1387.77556242686,0.201792913282938,719644,452194
1391.10417917344,0.205013486092626,714462,445621
1395.53569205567,0.21069604651191,708656,436254
1398.85434463244,0.216229801085031,705131,428588
1402.16872685072,0.222290038575961,701399,420412
1405.47883871051,0.228948190248871,698360,412222
1408.7846802118,0.236286751025818,695543,403680
1412.08625135461,0.243350711084995,692676,395530
1415.38355213892,0.251033099370998,690318,387272
1418.67658256475,0.257459037597964,688328,380484
1421.96534263208,0.263237324258873,686751,374595
1425.24983234092,0.268581951574001,685325,369245
1429.62250917284,0.274288858943964,683652,363535
1432.89703471187,0.277816787033162,682729,360107
1436.16728989241,0.280569502777685,681144,357001
1439.43327471445,0.283250943628494,680183,354303
1442.69498917801,0.284488085301383,679299,352836
1445.95243328308,0.285550129281498,678681,351654
1449.20560702965,0.286262170428482,677529,350482
1452.45451041774,0.286506678371661,675398,349183
1455.69914344733,0.28606386124301,673218,348411
1460.01867804025,0.285371369339665,670195,347400
1463.25334690003,0.28474347161099,667990,346758
1466.48374540132,0.283758713125884,664753,345861
1469.70987354412,0.282678395705829,661838,345202
1472.93173132843,0.28109721977138,658640,344787
1476.14931875425,0.279568628453805,655178,344184
1479.36263582158,0.277768630793276,651780,343821
1482.57168253042,0.276523945219981,647773,342688
1485.77645888076,0.274539501047586,643625,342053
1488.97696487262,0.273035306780165,639637,341113
1493.23766341522,0.270870466917371,633029,339276
1496.42820523726,0.269884119754061,628633,337686
1499.61447670082,0.267738706620103,623379,336522
1502.79647780588,0.265943355552484,618125,335068
1505.97420855245,0.264438957568557,612592,333221
1509.14766894053,0.262926293791554,606831,331239
1512.31685897012,0.261403847811361,601038,329229
1515.48177864122,0.25960288678739,594082,326771
1518.64242795382,0.258263379541255,587899,324369
1522.84998425743,0.256302891592836,578882,320839
1526.00066940022,0.255231375577205,572281,317964
1529.14708418453,0.254371956403271,565292,314703
1532.28922861034,0.253279292651743,557337,311056
1535.42710267766,0.252529853820811,549851,307408
1538.5607063865,0.251792100358477,541652,303339
1541.69003973684,0.250693986017772,533336,299438
1544.81510272869,0.25058462020074,525048,294859
1547.93589536205,0.249597849125571,515993,290433
1551.05241763692,0.249265955525553,507587,285920
1555.2011378902,0.248645747163147,495978,279780
1558.30769599526,0.248395166703919,487379,275088
1561.40998374183,0.247607233177725,478440,270533
1564.5080011299,0.2471262593453,469166,265583
1567.60174815948,0.246551896373326,459806,260629
1570.69122483058,0.246717663422031,450317,255153
1573.77643114318,0.245942840994957,440880,250252
1576.85736709729,0.245546457824272,431355,245069
1579.93403269291,0.245525058498127,422009,239771
1584.0296107072,0.244321011263209,408930,232985
1587.09631213301,0.24412973936636,399613,227777
1590.15874320033,0.242823205439926,390043,222992
1593.21690390916,0.242609378538376,380239,217494
1596.27079425949,0.241587995929336,371511,213002
1599.32041425134,0.241469549482916,362618,207960
1602.36576388469,0.240809105908966,353414,202990
1605.40684315956,0.240704483879414,344396,197858
1608.44365207593,0.239161808468876,335264,193297
1611.47619063381,0.238334070076303,325821,188211
1615.51293259778,0.238266081730846,314026,181426
1618.53550698585,0.237922099718001,305180,176455
1621.55381101543,0.237485500973965,296663,171703
1624.56784468652,0.237574356294484,287893,166593
1627.57760799912,0.237937026599028,279311,161492
1630.58310095323,0.238178703868269,270999,156599
1633.58432354884,0.238447689022793,262405,151539
1636.58127578597,0.238463818529503,254056,146712
1639.5739576646,0.239344040975825,245755,141631
1643.55755738958,0.240174249280063,234812,135066
1646.5402750984,0.241993620434623,226765,129892
1649.51872244873,0.242813112208038,218600,124979
1652.49289944057,0.244592896602691,210632,119931
1655.46280607392,0.246813544359346,203016,115005
1658.42844234878,0.24788311162284,195125,110263
1661.38980826515,0.249307942040663,187379,105539
1664.34690382303,0.250782991347352,179134,100553
1667.29972902242,0.250674900741073,170259,95595
1670.24828386331,0.251906532605775,161094,90193
1674.17304753796,0.252765442285197,146405,81807
1677.11163820905,0.251430426171696,133604,74884
1680.04595852164,0.252315600603332,120057,67154
1682.97600847574,0.254005677019448,105914,59013
1685.90178807136,0.253008029226395,92200,51490
1688.82329730848,0.255236227462232,79008,43897
1691.74053618711,0.255733159509801,67350,37377
1694.65350470725,0.254668670747299,57067,31748
1697.56220286889,0.2603199500929,48447,26604
1701.43382430455,0.25840618406629,38973,21496
