***Scan Config Information***,,,,,,,***Reference Scan Information***,,,,,,,,
Scan Config Name:,herbario,,,,,,Scan Config Name:,Local New Reference,,,,,,,
Scan Config Type:,Slew,Num Section:,1,,,,Scan Config Type:,Slew,Num Section:,1,,,,,
Section Config Type:,Column,,,,,,Section Config Type:,Column,,,,,,,
Start Wavelength (nm):,900,,,,,,Start Wavelength (nm):,900,,,,,,,
End Wavelength (nm):,1700,,,,,,End Wavelength (nm):,1700,,,,,,,
Pattern Width (nm):,7.03,,,,,,Pattern Width (nm):,7.03,,,,,,,
Exposure (ms):,0.635,,,,,,Exposure (ms):,0.635,,,,,,,
Digital Resolution:,228,,,,,,Digital Resolution:,228,,,,,,,
Num Repeats:,20,,,,,,Num Repeats:,20,,,,,,,
PGA Gain:,64,(FixedPGA),,,,,PGA Gain:,64,(AutoPGA),,,,,,
System Temp (C):,41.35,,,,,,System Temp (C):,41.23,,,,,,,
Humidity (%):,18.68,,,,,,Humidity (%):,18.67,,,,,,,
Lamp Indicator:,1123,,,,,,Lamp Indicator:,1123,,,,,,,
Data Date-Time:,2023/11/10T18:33:13,,,,,,Data Date-Time:,2023/11/10T18:31:13,,,,,,,
Total Measurement Time in sec:,6.7808466,,,,,,,,,,,,,,
,,,,,,,,,,,,,,,
***General Information***,,,,,,,***Calibration Coefficients***,,,,,,,,
Model Name:,NIR-S-G1,,,,,,Shift Vector Coefficients:,-5.08535400046452,0.0413457073195706,-8.39863846568903E-05,,,,,
Serial Number:,B07R011,(95UB122GC0AB07R011),,,,,Pixel to Wavelength Coefficients:,1794.37724621797,-0.920219689099738,-0.000237242138379873,,,,,
GUI Version:,3.9.4,Revision:,526,,,,Versions (Cal/Ref/Cfg):,1,3,1,,,,,
TIVA Version:,2.4.7,,,,,,***Lamp Usage ***,,,,,,,,
DLPC Version:,2.3.1,,,,,,Total Time(hh:mm:ss):,1hr 34min 56sec ,,,,,,,
UUID:,DE:67:0C:88:67:2B:47:21,,,,,,***Device/Error/Activation Status***,,,,,,,,
Main Board Version:,D,,,,,,Device Status:,0x00000001,Activation Status:,Activated,,,,,
Detector Board Version:,B,,,,,,Error status:,0x00000000,Error Code:,0x00000000000000000000000000000000,,,,,
,,,,,,,,,Error Details:,Not found,,,,,
***Scan Data***,,,,,,,,,,,,,,,
Wavelength (nm),Absorbance (AU),Reference Signal (unitless),Sample Signal (unitless)
901.81429527209,0.167386448496819,86660,58943
905.716563509274,0.166399892846963,93880,63999
909.614561387966,0.165168533798026,101396,69319
913.508288908168,0.165400447236428,110565,75547
917.397746069878,0.164074397627699,121114,83008
921.282932873098,0.164127869628789,134624,92256
925.163849317827,0.162970843021136,150643,103509
929.040495404065,0.16329456372297,169376,116294
932.912871131812,0.162773776670579,188586,129639
938.069395988934,0.162632991630503,212652,146230
941.931807546869,0.162239594104364,228889,157538
945.789948746314,0.163352920289965,243201,166960
949.643819587268,0.163109093646514,255637,175596
953.493420069731,0.162677099021123,267396,183856
957.338750193702,0.16273240001118,278556,191505
961.179809959184,0.162883691086003,289358,198862
965.016599366174,0.162924567724492,299675,205933
968.849118414673,0.163563999839416,309891,212640
973.952501032798,0.164493283669058,322925,221110
977.775055911486,0.16364564223191,332334,227997
981.593340431682,0.163676099648899,341006,233930
985.407354593388,0.163891149471604,348788,239150
989.217098396603,0.163932739858308,356285,244267
993.022571841327,0.16414030186199,362542,248438
996.823774927561,0.163864228728552,367954,252307
1000.6207076553,0.164327919486429,373740,256001
1004.41337002455,0.163925999164965,378174,259278
1008.20176203532,0.163656607034864,381537,261746
1013.24630860312,0.163580648621442,384850,264065
1017.02473644407,0.164113404280262,387482,265545
1020.79889392653,0.163643772903027,389203,267013
1024.5687810505,0.16376632639805,390367,267736
1028.33439781597,0.163316512061121,390847,268343
1032.09574422296,0.163258551927215,391073,268534
1035.85282027145,0.163304231303947,391286,268652
1039.60562596146,0.163338515973097,391330,268661
1043.35416129297,0.16338336260528,391519,268763
1048.34556562178,0.162965871071095,390827,268546
1052.08413678348,0.162985153705371,390709,268453
1055.81843758669,0.163021749303042,390183,268069
1059.54846803141,0.162646167303234,390250,268347
1063.27422811764,0.163124579822099,390239,268044
1066.99571784538,0.163049429395747,390384,268190
1070.71293721462,0.162643170252099,390893,268791
1074.42588622538,0.162514725733702,391798,269493
1078.13456487764,0.162675682599387,393146,270320
1081.83897317142,0.162950028924179,395036,271448
1086.77154144991,0.162628529090489,396893,272926
1090.46598557387,0.162763195672099,399249,274461
1094.15615933934,0.162279228033321,401770,276502
1097.84206274632,0.162169940028329,404076,278159
1101.52369579481,0.162447851359043,407050,280027
1105.20105848481,0.16245842867813,410444,282355
1108.87415081632,0.162526838026998,413902,284689
1112.54297278934,0.162364582304006,417263,287108
1116.20752440387,0.162914652102881,421341,289547
1121.08695044336,0.162691652048148,426413,293183
1124.74153788807,0.163080612394275,430842,295963
1128.3918549743,0.163252757097297,435756,299220
1132.03790170203,0.163675199777845,440234,302001
1135.67967807127,0.163648523073829,445160,305399
1139.31718408202,0.164261848004208,449958,308255
1142.95041973428,0.163975011910911,455172,312033
1146.57938502805,0.164966395945773,460711,315110
1150.20407996333,0.164593593643428,465709,318802
1153.82450454012,0.164915392532236,471567,322573
1158.6450945293,0.165952946666595,479975,327541
1162.25555493627,0.166427653767476,485652,331053
1165.86174498476,0.166506680817625,492233,335478
1169.46366467475,0.166816592878957,498810,339718
1173.06131400625,0.167203213630354,505578,344021
1176.65469297927,0.167106239673793,512503,348811
1180.24380159379,0.167569366472936,519929,353488
1183.82863984982,0.168018677118997,528019,358617
1187.40920774736,0.168216481632527,535968,363850
1192.17665549754,0.168365231174444,546353,370773
1195.74725922527,0.168869027348286,554570,375913
1199.3135925945,0.16901295824368,563263,381679
1202.87565560525,0.168641177726769,571047,387285
1206.43344825751,0.169190917967239,579719,392669
1209.98697055127,0.168906590051331,588577,398930
1213.53622248654,0.168868105645976,597251,404845
1217.08120406333,0.168937481222535,605590,410432
1220.62191528162,0.168458926510964,614092,416653
1224.15835614142,0.168281362571638,622299,422394
1228.86696784128,0.167866663871455,632928,430019
1232.39344453127,0.167969339202475,640661,435170
1235.91565086277,0.16776694131585,648010,440367
1239.43358683578,0.167766373558348,655380,445376
1242.94725245029,0.167362926162536,661887,450216
1246.45664770632,0.167459031262429,668608,454687
1249.96177260386,0.167145267848225,673897,458615
1253.4626271429,0.166953972378083,679396,462561
1256.95921132345,0.167288625846396,685254,466190
1261.61468078432,0.166935896947558,694281,472715
1265.10130079506,0.167100092334575,701477,477434
1268.58365044731,0.167440279735221,708423,481784
1272.06172974107,0.167025552322792,714707,486522
1275.53553867634,0.166913712211272,720117,490331
1279.00507725312,0.166997533814961,725171,493677
1282.4703454714,0.166923857594697,730485,497379
1285.9313433312,0.166850711164888,735011,500545
1289.38807083251,0.166554884539738,738970,503584
1292.84052797532,0.166657061330842,742508,505876
1297.43716138587,0.166935583175416,747201,508747
1300.87965435887,0.166760910674648,750471,511179
1304.31787697338,0.167094503530966,753206,512648
1307.7518292294,0.166791734138281,755434,514523
1311.18151112693,0.167149127896869,757230,515322
1314.60692266597,0.167277287236804,759404,516649
1318.02806384652,0.167610753529602,760105,516729
1321.44493466858,0.167687470763135,761175,517365
1324.85753513215,0.168114982012722,761960,517389
1329.4010263037,0.168752400713395,762619,517077
1332.80366259745,0.169234356985904,762918,516706
1336.20202853272,0.169455202236442,762173,515939
1339.59612410949,0.170498723902969,762120,514665
1342.98594932777,0.171150513824171,761049,513171
1346.37150418756,0.172127312946713,759289,510834
1349.75278868886,0.172928276217472,757221,508504
1353.12980283167,0.174174852525286,754674,505341
1356.50254661599,0.174851249656465,752455,503071
1359.87102004182,0.175621801212883,749849,500440
1364.35567516305,0.177133070898539,747083,496862
1367.71418441907,0.177200623861481,744763,495242
1371.06842331659,0.178181169741433,742089,492351
1374.41839185563,0.178417366082525,737400,488974
1377.76409003617,0.179176813865741,731400,484148
1381.10551785823,0.180018996796224,725244,479143
1384.44267532179,0.181106323628714,719176,473946
1387.77556242686,0.18228814471238,713709,469065
1391.10417917344,0.183933679771815,708603,463948
1395.53569205567,0.186618922261092,702878,457363
1398.85434463244,0.189093848084234,699133,452341
1402.16872685072,0.192136197906669,695520,446862
1405.47883871051,0.195487866754566,692542,441528
1408.7846802118,0.199623826209578,689815,435621
1412.08625135461,0.204138435858604,687234,429503
1415.38355213892,0.208212900058936,684604,423864
1418.67658256475,0.212620041645528,682939,418564
1421.96534263208,0.21664351786104,681147,413616
1425.24983234092,0.220565406173253,679760,409063
1429.62250917284,0.224750232106706,677966,404071
1432.89703471187,0.227794544080505,677237,400817
1436.16728989241,0.229896943699821,675508,397863
1439.43327471445,0.231490579312079,674895,396046
1442.69498917801,0.232240935290478,673691,394657
1445.95243328308,0.233206007409563,673070,393418
1449.20560702965,0.233686250745234,671917,392310
1452.45451041774,0.233756444187687,669797,391009
1455.69914344733,0.234062942559731,667450,389364
1460.01867804025,0.233762545760748,664753,388059
1463.25334690003,0.23418349795091,662613,386435
1466.48374540132,0.233815530865151,659446,384914
1469.70987354412,0.23333580118823,656293,383497
1472.93173132843,0.232599409153341,653090,382273
1476.14931875425,0.232253979851304,650075,380811
1479.36263582158,0.231770567018141,646158,378938
1482.57168253042,0.230860295881227,642496,377581
1485.77645888076,0.230132993253899,638161,375662
1488.97696487262,0.229515700480768,634364,373958
1493.23766341522,0.228418407615213,627841,371049
1496.42820523726,0.227493153300947,623111,369039
1499.61447670082,0.226829388708157,617975,366557
1502.79647780588,0.226078646670602,612850,364146
1505.97420855245,0.225615363654767,607496,361350
1509.14766894053,0.224359300185652,601715,358948
1512.31685897012,0.223902926717066,595850,355823
1515.48177864122,0.223334683418366,589445,352459
1518.64242795382,0.2220227821596,583227,349796
1522.84998425743,0.221123096906744,574268,345137
1526.00066940022,0.220626655370568,567436,341421
1529.14708418453,0.220105546632633,560509,337658
1532.28922861034,0.21989048200392,552893,333235
1535.42710267766,0.21931053533791,545133,328997
1538.5607063865,0.219197378625152,537313,324362
1541.69003973684,0.218635570271888,528679,319563
1544.81510272869,0.218620428539434,520427,314586
1547.93589536205,0.218315793361362,511583,309457
1551.05241763692,0.217905548719374,502984,304543
1555.2011378902,0.217719442897175,491691,297833
1558.30769599526,0.217453239288954,483005,292751
1561.40998374183,0.216794044131644,474080,287778
1564.5080011299,0.217080542401842,465351,282293
1567.60174815948,0.216808866945204,455892,276728
1570.69122483058,0.216967121132308,446488,270921
1573.77643114318,0.216310800941988,436964,265543
1576.85736709729,0.216665921002965,427641,259665
1579.93403269291,0.216574966156723,418148,253954
1584.0296107072,0.21632254175655,405257,246268
1587.09631213301,0.215587107441249,395917,241000
1590.15874320033,0.214877970593887,386931,235915
1593.21690390916,0.214487504772738,377025,230082
1596.27079425949,0.214297583931035,368279,224843
1599.32041425134,0.213152928144495,359429,220019
1602.36576388469,0.213440546373326,350619,214484
1605.40684315956,0.212491316290706,341321,209253
1608.44365207593,0.212082128576157,331952,203701
1611.47619063381,0.21167829284412,323490,198693
1615.51293259778,0.211045194429641,311364,191524
1618.53550698585,0.21065339816279,302629,186319
1621.55381101543,0.209502310400922,293989,181480
1624.56784468652,0.209853053414034,285402,176037
1627.57760799912,0.20977703907178,277111,170953
1630.58310095323,0.210513069573218,268381,165287
1633.58432354884,0.210181178999019,259851,160156
1636.58127578597,0.21074103970028,251766,154973
1639.5739576646,0.210916429057866,243631,149905
1643.55755738958,0.211547525254102,232846,143061
1646.5402750984,0.212495177044232,224871,137860
1649.51872244873,0.213252977839565,216762,132657
1652.49289944057,0.21445502533036,208731,127389
1655.46280607392,0.215723793619979,201176,122420
1658.42844234878,0.216293546379926,193369,117515
1661.38980826515,0.218444753687031,185755,112330
1664.34690382303,0.219439142136488,177698,107212
1667.29972902242,0.221639250169866,169255,101602
1670.24828386331,0.222970338838095,160255,95905
1674.17304753796,0.223833653765727,145907,87145
1677.11163820905,0.223507527160461,133519,79806
1680.04595852164,0.22482936650511,120182,71616
1682.97600847574,0.228411692520162,106680,63048
1685.90178807136,0.228170258772587,92708,54821
1688.82329730848,0.228679633517595,79907,47196
1691.74053618711,0.229719274540681,68154,40158
1694.65350470725,0.229666780908662,57640,33967
1697.56220286889,0.227107918660451,48740,28892
1701.43382430455,0.235097127259395,39330,22889
