***Scan Config Information***,,,,,,,***Reference Scan Information***,,,,,,,,
Scan Config Name:,FolHerbario,,,,,,Scan Config Name:,Local New Reference,,,,,,,
Scan Config Type:,Slew,Num Section:,1,,,,Scan Config Type:,Slew,Num Section:,1,,,,,
Section Config Type:,Column,,,,,,Section Config Type:,Column,,,,,,,
Start Wavelength (nm):,900,,,,,,Start Wavelength (nm):,900,,,,,,,
End Wavelength (nm):,1700,,,,,,End Wavelength (nm):,1700,,,,,,,
Pattern Width (nm):,7.03,,,,,,Pattern Width (nm):,7.03,,,,,,,
Exposure (ms):,0.635,,,,,,Exposure (ms):,0.635,,,,,,,
Digital Resolution:,228,,,,,,Digital Resolution:,228,,,,,,,
Num Repeats:,20,,,,,,Num Repeats:,20,,,,,,,
PGA Gain:,64,(FixedPGA),,,,,PGA Gain:,64,(AutoPGA),,,,,,
System Temp (C):,29.82,,,,,,System Temp (C):,27.93,,,,,,,
Humidity (%):,52.35,,,,,,Humidity (%):,52.39,,,,,,,
Lamp ADC:,3079,3079,830,849,,,Lamp ADC:,3079,3079,830,849,,,,
Data Date-Time:,2025/11/05T15:49:09,,,,,,Data Date-Time:,2025/11/05T15:47:29,,,,,,,
Total Measurement Time in sec:,6.4734942,,,,,,,,,,,,,,
,,,,,,,,,,,,,,,
***General Information***,,,,,,,***Calibration Coefficients***,,,,,,,,
Model Name:,NIR-S-G1,,,,,,Shift Vector Coefficients:,-5.74589567087503,0.0468271937173058,-9.53581739805986E-05,,,,,
Serial Number:,C23R002,(95UB125GC0VC23R002),,,,,Pixel to Wavelength Coefficients:,1756.1983651918,-0.919335509971685,-0.000241825006214287,,,,,
GUI Version:,3.13.2,Revision:,1227,,,,Versions (Cal/Ref/Cfg):,1,3,1,,,,,
TIVA Version:,2.4.10,,,,,,***Lamp Usage ***,,,,,,,,
DLPC Version:,2.3.1,,,,,,Total Time(hh:mm:ss):,1hr 38min 55sec ,,,,,,,
UUID:,DE:67:0C:88:67:76:74:21,,,,,,***Device/Error/Activation Status***,,,,,,,,
Main Board Version:,F,,,,,,Device Status:,0x00000101,Activation Status:,Activated,,,,,
Detector Board Version:,C,,,,,,Error status:,0x00000000,Error Code:,0x00000000000000000000000000000000,,,,,
,,,,,,,,,Error Details:,Not found,,,,,
***Scan Data***,,,,,,,,,,,,,,,
Wavelength (nm),Absorbance (AU),Reference Signal (unitless),Sample Signal (unitless)
901.701099874012,0.00170866283337675,87862,87517
905.577788882674,0.000635736868052155,95709,95569
909.450125041225,0.00104042777264478,103644,103396
913.318108349663,0.00277316162725193,113274,112553
917.18173880799,0.00306708635100014,124905,124026
921.041016416205,0.0030309838859424,139472,138502
926.179948793651,0.00445200533710874,164824,163143
930.029069751605,0.00447067162161012,186988,185073
933.873837859447,0.00362346651557394,208819,207084
937.714253117177,0.00260986230843703,228160,226793
941.550315524795,0.00253487272256401,244340,242918
945.382025082302,0.00156880183396284,257919,256989
949.209381789697,0.000933750227494352,269587,269008
954.305752966049,0.00147815319141868,283714,282750
958.122953023182,0.000671505869915549,293203,292750
961.935800230204,0.000669673201880443,302442,301976
965.744294587114,0.000699179719592101,311446,310945
969.548436093912,0.00080331699195167,320347,319755
973.348224750598,0.00057909817783321,328697,328259
977.143660557173,0.000918066904181182,337170,336458
982.197470532431,0.000422399836713616,347687,347349
985.982749688744,0.00059433436340756,355375,354889
989.763675994946,0.000841670177512383,362577,361875
993.540249451036,0.000709063891817488,369633,369030
997.312470057013,0.000801959545765965,376177,375483
1001.08033781288,0.000354601278349527,382275,381963
1004.84385271863,0.000325741445422836,388121,387830
1009.8551014928,0.00028126885699019,395406,395150
1013.60845974829,0.00050598728279094,400206,399740
1017.35746515367,0.000250273897459456,404436,404203
1021.10211770894,0.000134133506115291,408023,407897
1024.8424174141,0.000200540389599716,411563,411373
1028.57836426914,0.000234846720992133,414348,414124
1032.30995827408,0.000112649066117756,416425,416317
1037.27864584715,-1.86746025510235E-05,418597,418615
1041.00008320182,0.000344828944734607,420823,420489
1044.71716770638,0.000303579748799492,422168,421873
1048.42989936083,0.000569191357423274,423744,423189
1052.13827816517,0.000225893462523513,424997,424776
1055.8423041194,0.000381530830770265,427048,426673
1059.54197722351,0.000666383319208496,429160,428502
1064.46810359549,0.000197860398561099,430309,430113
1068.15762004934,0.000432487769820954,430002,429574
1071.84278365308,0.00061821289001866,428127,427518
1075.52359440671,0.000565801524342277,425513,424959
1079.20005231022,0.000512935797048271,423592,423092
1082.87215736363,0.000524121820884666,422848,422338
1086.53990956692,0.000670243305930796,423448,422795
1091.42347473781,0.000631495732750401,424634,424017
1095.08107029084,0.00095098715510746,427004,426070
1098.73431299376,0.000631799848699335,429245,428621
1102.38320284657,0.000402763923345295,432593,432192
1106.02773984926,0.000748550916032624,436091,435340
1109.66792400185,0.00076878367774351,439890,439112
1113.30375530432,0.000611382806211387,444280,443655
1118.14475927411,0.000764834940255151,450684,449891
1121.77043392632,0.000748331208158318,455387,454603
1125.39175572842,0.000911707577175106,460640,459674
1129.00872468041,0.000629590161525953,465956,465281
1132.62134078229,0.000825719982020543,471707,470811
1136.22960403405,0.00057089328167048,477290,476663
1139.83351443571,0.000442375057340565,483259,482767
1144.6319572044,0.000531514347131315,491371,490770
1148.22571095579,0.000565484841452518,497222,496575
1151.81511185707,0.000396619543848918,502830,502371
1155.40015990824,0.000810521220884881,508969,508020
1158.9808551093,0.000709277080755756,514757,513917
1162.55719746024,0.000898883397063094,520890,519813
1166.12918696107,0.000533535430158918,526163,525517
1170.88506852868,0.000879750948389698,534183,533102
1174.44690137925,0.00076285209320407,540174,539226
1178.00438137971,0.000648859740532673,545903,545088
1181.55750853005,0.000689865226662099,551911,551035
1185.10628283029,0.000682557570790892,558452,557575
1188.65070428041,0.00068396177809327,564932,564043
1192.19077288043,0.000659003860140293,571801,570934
1196.90409324693,0.00088143061356494,581008,579830
1200.43400519669,0.000785634484519534,587599,586537
1203.95956429632,0.000780789821032581,594582,593514
1207.48077054585,0.000863784987818791,601924,600728
1210.99762394527,0.0010477125452748,609245,607777
1214.51012449457,0.00104329171889124,616408,614929
1218.01827219376,0.000878771440591288,623825,622564
1222.68903135918,0.000912109031611727,633459,632130
1226.18702240811,0.00113132069004756,640382,638716
1229.68066060693,0.000971948341509004,647285,645838
1233.16994595564,0.00111543014973772,654951,653271
1236.65487845423,0.00106268272648034,663277,661656
1240.13545810271,0.00101433788151904,672561,670992
1243.61168490109,0.000899115914953606,682736,681324
1248.23988286541,0.0011486121015481,695874,694036
1251.70595301352,0.00103551339281649,703753,702077
1255.16767031152,0.0010862173776199,711374,709597
1258.6250347594,0.00100072358317922,718631,716977
1262.07804635718,0.00115711658898324,725718,723787
1265.52670510484,0.00113359527693414,731933,730025
1268.97101100239,0.00112156972316797,737832,735929
1273.55664776562,0.000952855265685759,746478,744842
1276.99079701291,0.000872859911173054,752061,750551
1280.42059341009,0.0011058967260474,757319,755393
1283.84603695715,0.00106669823945326,762693,760822
1287.26712765411,0.00102712437371449,767913,766099
1290.68386550095,0.00134949727756152,773245,770846
1294.09625049768,0.00110703320413524,777754,775774
1298.63932605982,0.00114129889791445,784153,782095
1302.04155440629,0.000940774142404612,788403,786697
1305.43942990264,0.00123639439229074,792865,790611
1308.83295254889,0.00116025134639383,796848,794722
1312.22212234502,0.00100686303773419,800621,798767
1315.60693929105,0.00106196084751405,804580,802615
1320.11325745224,0.00116717993068632,808518,806348
1323.487917748,0.00129168399793462,810494,808087
1326.85822519365,0.00103800826212451,813070,811129
1330.22417978919,0.00109471028460163,815495,813442
1333.58578153461,0.00117356172781787,817097,814892
1336.94303042993,0.00109885745014111,818357,816289
1340.29592647513,0.000985345935525886,819849,817991
1344.75968343522,0.001021986959639,821121,819191
1348.10242283016,0.00105466169562405,820861,818870
1351.44080937499,0.00120348637788462,820296,818026
1354.77484306971,0.00157072732918575,819345,816387
1358.10452391432,0.00145165243674936,817807,815078
1361.42985190881,0.00150782874100831,816242,813413
1364.75082705319,0.00142663258508587,815050,812377
1369.17202281219,0.00121999058523068,814918,812632
1372.48284130632,0.00142397364898183,814431,811765
1375.78930695032,0.00119929219769683,812282,810042
1379.09141974422,0.00133214902460789,809420,806941
1382.38917968801,0.00140379859303719,805975,803374
1385.68258678168,0.00106199169038237,802100,800141
1388.97164102524,0.0013090640647338,798088,795686
1393.35027558315,0.001283059637701,791188,788854
1396.62917317645,0.00100307940543527,786299,784485
1399.90371791964,0.00119684415577452,783055,780900
1403.17390981272,0.00117468687541823,782256,780143
1406.43974885568,0.00115713614499555,783206,781122
1409.70123504853,0.00106133598818358,784978,783062
1412.95836839128,0.00119339269944927,785681,783525
1417.29444174809,0.00112887333501791,785839,783799
1420.54141844057,0.00126122734963619,786242,783962
1423.78404228294,0.00100900090220994,785999,784175
1427.0223132752,0.00101861210250823,785421,783581
1430.25623141734,0.00117016277550134,784533,782422
1433.48579670937,0.000995008692281239,783930,782136
1436.71100915129,0.00121029556716457,782988,780809
1441.00452130702,0.000898557703110505,781376,779761
1444.21957709868,0.0011292962837422,779769,777744
1447.43028004022,0.00114392868591947,778171,776124
1450.63663013166,0.0010104105332118,775867,774064
1453.83862737298,0.000985111367578787,773260,771508
1457.0362717642,0.000932372129826255,770320,768668
1460.2295633053,0.0010797013468027,767212,765307
1464.48051425993,0.000982827163171491,762226,760503
1467.66364915076,0.00100019362065345,758570,756825
1470.84243119149,0.00118714510460742,754276,752217
1474.01686038211,0.000958716811736311,750082,748428
1477.18693672261,0.00098761868170011,745325,743632
1480.35266021301,0.000896324828073197,740153,738627
1483.51403085329,0.000975321985949495,734651,733003
1487.72242060682,0.0011720242343284,727631,725670
1490.87363459684,0.00104056161818879,721654,719927
1494.02049573675,0.000911060249084217,715310,713811
1497.16300402654,0.00102145100893072,709599,707932
1500.30115946623,0.00118592024346918,703348,701430
1503.4349620558,0.00106794571868114,696657,694946
1506.56441179526,0.00104428534710766,689521,687865
1510.7302403477,0.000930984421900145,680404,678947
1513.8495334369,0.00116658383000226,673239,671433
1516.96447367598,0.000835585250205038,664358,663081
1520.07506106496,0.000991664278443075,656791,655293
1523.18129560382,0.00121055672871381,649176,647369
1526.28317729258,0.000992577452716497,641294,639830
1529.38070613122,0.00097360310686502,632789,631372
1533.50397348256,0.000968333245208888,621412,620028
1536.59134567094,0.000767543067271009,612763,611681
1539.67436500921,0.000733898626335325,604109,603089
1542.75303149736,0.000835506392061598,595221,594077
1545.82734513541,0.000800980520867729,586120,585040
1548.89730592334,0.00103834616590668,577046,575668
1551.96291386116,0.000797830600769262,567183,566142
1556.04362001141,0.00101676202814184,554215,552919
1559.09907129897,0.000763894178042548,544559,543602
1562.15016973641,0.000982442000180676,534608,533400
1565.19691532375,0.00099613621700171,524648,523446
1568.23930806097,0.000964678758930493,514695,513553
1571.27734794808,0.000710840332709908,504454,503629
1574.31103498508,0.00107323436799264,494700,493479
1578.34917993424,0.000580915071368355,481031,480388
1581.37271032098,0.000508356328372505,471001,470450
1584.39188785761,0.000949539690003943,461079,460072
1587.40671254412,0.00109914832216369,451006,449866
1590.41718438052,0.00071420619139367,440612,439888
1593.42330336681,0.000515531117760641,429890,429380
1596.42506950299,0.000724257134116551,420099,419399
1600.42065325106,0.000530458280214878,406331,405835
1603.41226273698,0.000208461530862593,395928,395738
1606.39951937278,0.000699560290297196,385834,385213
1609.38242315848,0.000732168020797781,376382,375748
1612.36097409406,0.000297757337826955,366222,365971
1615.33517217953,0.000529535229047065,356159,355725
1618.30501741489,0.000380987579798823,346687,346383
1622.25803996186,0.000673613221446418,334226,333708
1625.21772854696,0.000373511819174467,324542,324263
1628.17306428194,-0.000239953899269482,314837,315011
1631.12404716682,0.000166469676708073,305294,305177
1634.07067720158,-0.000395737913601037,296171,296441
1637.01295438623,0.000211990574537575,286881,286741
1639.95087872077,0.000205145083131332,277394,277263
1643.86134006665,-0.000237876546916295,264656,264801
1646.78910775092,-0.000245184234162504,254995,255139
1649.71252258509,-0.000723943781387157,245155,245564
1652.63158456914,-0.00107538182856774,235154,235737
1655.54629370308,-0.0014019371236256,224848,225575
1658.45664998691,-0.00364004065344759,213147,214941
1661.36265342063,-0.00573131148026812,200387,203049
1665.23055356542,-0.0104081990140927,180497,184875
1668.12640034887,-0.0140522635296519,163749,169134
1671.01789428222,-0.0179108084637645,146069,152219
1673.90503536545,-0.0218691121357338,127912,134518
1676.78782359857,-0.0257998430036095,110299,117050
1679.66625898158,-0.026497518862478,94846,100813
1682.54034151448,-0.0270813377886263,81113,86332
1686.36568045817,-0.0260289400296914,66104,70187
1689.22960634081,-0.0275686918951363,56319,60010
1692.08917937333,-0.0287580876542044,48116,51410
1694.94439955575,-0.0221192181751443,41454,43620
1697.79526688805,-0.0234143825047546,35293,37248
1700.64178137024,-0.0234967836954221,30597,32298
