***Scan Config Information***,,,,,,,***Reference Scan Information***,,,,,,,,
Scan Config Name:,FolHerbario,,,,,,Scan Config Name:,Local New Reference,,,,,,,
Scan Config Type:,Slew,Num Section:,1,,,,Scan Config Type:,Slew,Num Section:,1,,,,,
Section Config Type:,Column,,,,,,Section Config Type:,Column,,,,,,,
Start Wavelength (nm):,900,,,,,,Start Wavelength (nm):,900,,,,,,,
End Wavelength (nm):,1700,,,,,,End Wavelength (nm):,1700,,,,,,,
Pattern Width (nm):,7.03,,,,,,Pattern Width (nm):,7.03,,,,,,,
Exposure (ms):,0.635,,,,,,Exposure (ms):,0.635,,,,,,,
Digital Resolution:,228,,,,,,Digital Resolution:,228,,,,,,,
Num Repeats:,20,,,,,,Num Repeats:,20,,,,,,,
PGA Gain:,64,(FixedPGA),,,,,PGA Gain:,64,(AutoPGA),,,,,,
System Temp (C):,30.77,,,,,,System Temp (C):,27.93,,,,,,,
Humidity (%):,51.66,,,,,,Humidity (%):,52.39,,,,,,,
Lamp ADC:,3079,3079,830,849,,,Lamp ADC:,3079,3079,830,849,,,,
Data Date-Time:,2025/11/05T15:50:11,,,,,,Data Date-Time:,2025/11/05T15:47:29,,,,,,,
Total Measurement Time in sec:,6.4817466,,,,,,,,,,,,,,
,,,,,,,,,,,,,,,
***General Information***,,,,,,,***Calibration Coefficients***,,,,,,,,
Model Name:,NIR-S-G1,,,,,,Shift Vector Coefficients:,-5.74589567087503,0.0468271937173058,-9.53581739805986E-05,,,,,
Serial Number:,C23R002,(95UB125GC0VC23R002),,,,,Pixel to Wavelength Coefficients:,1756.1983651918,-0.919335509971685,-0.000241825006214287,,,,,
GUI Version:,3.13.2,Revision:,1227,,,,Versions (Cal/Ref/Cfg):,1,3,1,,,,,
TIVA Version:,2.4.10,,,,,,***Lamp Usage ***,,,,,,,,
DLPC Version:,2.3.1,,,,,,Total Time(hh:mm:ss):,1hr 39min 5sec ,,,,,,,
UUID:,DE:67:0C:88:67:76:74:21,,,,,,***Device/Error/Activation Status***,,,,,,,,
Main Board Version:,F,,,,,,Device Status:,0x00000101,Activation Status:,Activated,,,,,
Detector Board Version:,C,,,,,,Error status:,0x00000000,Error Code:,0x00000000000000000000000000000000,,,,,
,,,,,,,,,Error Details:,Not found,,,,,
***Scan Data***,,,,,,,,,,,,,,,
Wavelength (nm),Absorbance (AU),Reference Signal (unitless),Sample Signal (unitless)
901.701099874012,-0.000133438229126888,87862,87889
905.577788882674,-0.0004807253376302,95709,95815
909.450125041225,0.000293416738793062,103644,103574
913.318108349663,0.00138244421015131,113274,112914
917.18173880799,0.00107572365256406,124905,124596
921.041016416205,0.00275826754966897,139472,138589
926.179948793651,0.00467034814263034,164824,163061
930.029069751605,0.00443312745600275,186988,185089
933.873837859447,0.00313719079005204,208819,207316
937.714253117177,0.00215243316385197,228160,227032
941.550315524795,0.00119963552465642,244340,243666
945.382025082302,0.000318362532480095,257919,257730
949.209381789697,-0.000280217011921073,269587,269761
954.305752966049,-0.000764700092457887,283714,284214
958.122953023182,-0.00110210001396942,293203,293948
961.935800230204,-0.00115441179807642,302442,303247
965.744294587114,-0.00156592471510787,311446,312571
969.548436093912,-0.000860017514033803,320347,320982
973.348224750598,-0.00100959016977582,328697,329462
977.143660557173,-0.000752860941696429,337170,337755
982.197470532431,-0.00136187541922871,347687,348779
985.982749688744,-0.00103142661120382,355375,356220
989.763675994946,-0.00102291281152359,362577,363432
993.540249451036,-0.00115811461122279,369633,370620
997.312470057013,-0.00137628404655742,376177,377371
1001.08033781288,-0.00151515503961228,382275,383611
1004.84385271863,-0.0014934875929842,388121,389458
1009.8551014928,-0.00160392174233378,395406,396869
1013.60845974829,-0.00180739485526577,400206,401875
1017.35746515367,-0.00177034974310913,404436,406088
1021.10211770894,-0.00185869459721493,408023,409773
1024.8424174141,-0.00182803022499909,411563,413299
1028.57836426914,-0.00217780493120076,414348,416431
1032.30995827408,-0.00210781564572801,416425,418451
1037.27864584715,-0.00220840105753991,418597,420731
1041.00008320182,-0.00185057760829427,420823,422620
1044.71716770638,-0.00198398545494694,422168,424101
1048.42989936083,-0.0020204916138032,423744,425720
1052.13827816517,-0.00202065132339585,424997,426979
1055.8423041194,-0.00203931175018163,427048,429058
1059.54197722351,-0.00175927321988342,429160,430902
1064.46810359549,-0.00208918534814901,430309,432384
1068.15762004934,-0.00218213073254914,430002,432168
1071.84278365308,-0.00195845261728081,428127,430062
1075.52359440671,-0.00180176488001913,425513,427282
1079.20005231022,-0.00211611159645663,423592,425661
1082.87215736363,-0.00196239866616529,422848,424763
1086.53990956692,-0.00174005441199068,423448,425148
1091.42347473781,-0.00198470708835823,424634,426579
1095.08107029084,-0.00177522849705257,427004,428753
1098.73431299376,-0.00184456941156381,429245,431072
1102.38320284657,-0.00178233485251259,432593,434372
1106.02773984926,-0.00184344020565575,436091,437946
1109.66792400185,-0.00176167827872863,439890,441678
1113.30375530432,-0.00193411745642868,444280,446263
1118.14475927411,-0.00159765400217172,450684,452345
1121.77043392632,-0.00173509203646504,455387,457210
1125.39175572842,-0.00179515992690585,460640,462548
1129.00872468041,-0.00191208027928103,465956,468012
1132.62134078229,-0.00175129353912636,471707,473613
1136.22960403405,-0.00178703577097265,477290,479258
1139.83351443571,-0.00189476838109668,483259,485372
1144.6319572044,-0.00206680063842978,491371,493715
1148.22571095579,-0.00209034817619492,497222,499621
1151.81511185707,-0.00212725795939891,502830,505299
1155.40015990824,-0.00157316058810784,508969,510816
1158.9808551093,-0.00203442222838986,514757,517174
1162.55719746024,-0.00203791010231505,520890,523340
1166.12918696107,-0.00183017514026033,526163,528385
1170.88506852868,-0.00171692437722822,534183,536299
1174.44690137925,-0.00199333356508929,540174,542659
1178.00438137971,-0.00218860974052598,545903,548661
1181.55750853005,-0.00200900333794258,551911,554470
1185.10628283029,-0.002048225987359,558452,561092
1188.65070428041,-0.00220915581227971,564932,567813
1192.19077288043,-0.00204209866241387,571801,574496
1196.90409324693,-0.00194507738478201,581008,583616
1200.43400519669,-0.00211826030876371,587599,590472
1203.95956429632,-0.00206800000088051,594582,597420
1207.48077054585,-0.00194731361451514,601924,604629
1210.99762394527,-0.00185086128199905,609245,611847
1214.51012449457,-0.00180554359761255,616408,618976
1218.01827219376,-0.00177649387447008,623825,626382
1222.68903135918,-0.0019877746328041,633459,636365
1226.18702240811,-0.00164823746396238,640382,642817
1229.68066060693,-0.00190065584875676,647285,650124
1233.16994595564,-0.00169817635242894,654951,657517
1236.65487845423,-0.00186731508587644,663277,666135
1240.13545810271,-0.00195088959321025,672561,675589
1243.61168490109,-0.00206181599016174,682736,685985
1248.23988286541,-0.00195899151721259,695874,699020
1251.70595301352,-0.0018805827759223,703753,706807
1255.16767031152,-0.00187202883016113,711374,714447
1258.6250347594,-0.0018266863086124,718631,721660
1262.07804635718,-0.00190243847808659,725718,728904
1265.52670510484,-0.00179237512578042,731933,734960
1268.97101100239,-0.00200546190047163,737832,741247
1273.55664776562,-0.00194522012111269,746478,749829
1276.99079701291,-0.00201301609499042,752061,755555
1280.42059341009,-0.00175868629360094,757319,760392
1283.84603695715,-0.0019657460239226,762693,766153
1287.26712765411,-0.00196479972204902,767913,771395
1290.68386550095,-0.00172533270359067,773245,776323
1294.09625049768,-0.0020639439048887,777754,781459
1298.63932605982,-0.00200303993960678,784153,787778
1302.04155440629,-0.00211343151262659,788403,792249
1305.43942990264,-0.00199580244292409,792865,796517
1308.83295254889,-0.00207210285812696,796848,800659
1312.22212234502,-0.00213577812307285,800621,804568
1315.60693929105,-0.00206674201357317,804580,808418
1320.11325745224,-0.00190430857733734,808518,812071
1323.487917748,-0.00197702665938644,810494,814192
1326.85822519365,-0.00206807160062821,813070,816951
1330.22417978919,-0.0020709468762493,815495,819393
1333.58578153461,-0.00209863419789652,817097,821055
1336.94303042993,-0.00222056106789672,818357,822552
1340.29592647513,-0.00213799596837266,819849,823895
1344.75968343522,-0.00215995431538728,821121,825215
1348.10242283016,-0.00204796264508603,820861,824741
1351.44080937499,-0.00220479053411239,820296,824471
1354.77484306971,-0.00181691859170639,819345,822780
1358.10452391432,-0.00174575747961123,817807,821101
1361.42985190881,-0.00183175871860099,816242,819692
1364.75082705319,-0.00192038036644069,815050,818662
1369.17202281219,-0.00220233662041399,814918,819061
1372.48284130632,-0.00193245446638111,814431,818063
1375.78930695032,-0.00204027348317873,812282,816107
1379.09141974422,-0.00210834540494084,809420,813359
1382.38917968801,-0.00210285696742912,805975,809887
1385.68258678168,-0.00227137520576618,802100,806306
1388.97164102524,-0.0023958837710758,798088,802503
1393.35027558315,-0.00264374227318354,791188,796019
1396.62917317645,-0.00285770884430963,786299,791490
1399.90371791964,-0.00321427462354609,783055,788872
1403.17390981272,-0.00299540188012046,782256,787670
1406.43974885568,-0.00278852452035151,783206,788251
1409.70123504853,-0.00245889188747639,784978,789435
1412.95836839128,-0.00257045934100446,785681,790345
1417.29444174809,-0.00245730448714248,785839,790298
1420.54141844057,-0.00217528976726531,786242,790190
1423.78404228294,-0.00232162700233587,785999,790212
1427.0223132752,-0.00231453094778886,785421,789618
1430.25623141734,-0.00228795964362442,784533,788677
1433.48579670937,-0.00219712303693613,783930,787906
1436.71100915129,-0.00221079674965046,782988,786984
1441.00452130702,-0.00237568047613541,781376,785662
1444.21957709868,-0.00235674433789982,779769,784012
1447.43028004022,-0.00228274377314602,778171,782272
1450.63663013166,-0.00227669789556643,775867,779945
1453.83862737298,-0.00217930622175738,773260,777150
1457.0362717642,-0.00242145676107243,770320,774627
1460.2295633053,-0.00231864248931609,767212,771319
1464.48051425993,-0.00230656559974104,762226,766285
1467.66364915076,-0.0022886087502504,758570,762578
1470.84243119149,-0.00234799197176918,754276,758365
1474.01686038211,-0.00249984419851465,750082,754412
1477.18693672261,-0.00242942508397675,745325,749506
1480.35266021301,-0.0023920877213202,740153,744241
1483.51403085329,-0.0024681499351707,734651,738838
1487.72242060682,-0.00219863251043161,727631,731324
1490.87363459684,-0.00243887184888195,721654,725718
1494.02049573675,-0.00260530739710406,715310,719614
1497.16300402654,-0.00234933004627928,709599,713448
1500.30115946623,-0.00250216572160418,703348,707412
1503.4349620558,-0.00249141866680789,696657,700665
1506.56441179526,-0.00269368351235425,689521,693811
1510.7302403477,-0.00243081069973131,680404,684223
1513.8495334369,-0.0024187609486392,673239,676999
1516.96447367598,-0.00256734255457621,664358,668297
1520.07506106496,-0.00238842059103732,656791,660413
1523.18129560382,-0.00240771082954562,649176,652785
1526.28317729258,-0.00234629854522122,641294,644768
1529.38070613122,-0.00251969930182126,632789,636471
1533.50397348256,-0.00278935199281825,621412,625416
1536.59134567094,-0.00278282312613953,612763,616702
1539.67436500921,-0.00285041305327638,604109,608087
1542.75303149736,-0.00264125915971229,595221,598852
1545.82734513541,-0.00269540007837512,586120,589769
1548.89730592334,-0.00256560352674481,577046,580465
1551.96291386116,-0.00300872608602562,567183,571126
1556.04362001141,-0.00278310481189568,554215,557778
1559.09907129897,-0.00294479018179977,544559,548264
1562.15016973641,-0.00273552082190992,534608,537986
1565.19691532375,-0.00266718638796328,524648,527880
1568.23930806097,-0.00278903279622545,514695,518011
1571.27734794808,-0.00304898144971902,504454,508008
1574.31103498508,-0.00275747343925383,494700,497851
1578.34917993424,-0.00304093119264803,481031,484411
1581.37271032098,-0.00318692867002398,471001,474470
1584.39188785761,-0.00291950207969484,461079,464189
1587.40671254412,-0.00300169818452611,451006,454134
1590.41718438052,-0.00308400252313502,440612,443752
1593.42330336681,-0.00328598913875505,429890,433155
1596.42506950299,-0.00316630257104552,420099,423173
1600.42065325106,-0.00343969811292259,406331,409562
1603.41226273698,-0.00360586480511764,395928,399229
1606.39951937278,-0.00300282421859743,385834,388511
1609.38242315848,-0.00337002659907503,376382,379314
1612.36097409406,-0.00344197178663438,366222,369136
1615.33517217953,-0.00374680903115114,356159,359245
1618.30501741489,-0.00354814261244155,346687,349531
1622.25803996186,-0.00344402111920856,334226,336887
1625.21772854696,-0.00372551640719657,324542,327338
1628.17306428194,-0.00401482808596705,314837,317761
1631.12404716682,-0.00418058942494516,305294,308247
1634.07067720158,-0.00420708398550591,296171,299054
1637.01295438623,-0.00409377217383791,286881,289598
1639.95087872077,-0.00438036741823758,277394,280206
1643.86134006665,-0.00435133277004472,264656,267321
1646.78910775092,-0.00475630206913935,254995,257803
1649.71252258509,-0.0051790070679526,245155,248096
1652.63158456914,-0.0060194569482567,235154,238436
1655.54629370308,-0.00668535987941707,224848,228336
1658.45664998691,-0.00982707074109068,213147,218025
1661.36265342063,-0.0131493479455356,200387,206547
1665.23055356542,-0.0195711051164303,180497,188817
1668.12640034887,-0.0256336630719188,163749,173705
1671.01789428222,-0.0327087147192173,146069,157495
1673.90503536545,-0.0380861100520888,127912,139636
1676.78782359857,-0.0437668963754707,110299,121994
1679.66625898158,-0.047351696493149,94846,105772
1682.54034151448,-0.0489523353072034,81113,90791
1686.36568045817,-0.0473929321710947,66104,73726
1689.22960634081,-0.0481406813535055,56319,62921
1692.08917937333,-0.0467780324864596,48116,53588
1694.94439955575,-0.0430239578836351,41454,45771
1697.79526688805,-0.0438768510358959,35293,39045
1700.64178137024,-0.0376903744743707,30597,33371
